1,2,3,4,5,6,7,8,9,10,11,12,13,14,15,16,17,Average
6.053924347066125,17.884350701101788,54.644304369257,46.63153439465616,14.309088021254185,14.736010314871526,8.913472948295743,11.449890829173874,36.65,319.85,2986.0,2174.5,204.75,217.15,79.45,131.1,1,38.44139226657655
9.052623929005335,18.03052966498766,60.835022807590036,70.58611761529316,17.789041570584963,17.44276354251241,11.6940155635265,14.069470494656152,81.95,325.1,3700.9,4982.400000000001,316.45000000000005,304.25,136.75,197.95000000000002,1,57.739663588423525
14.903019828209315,29.92824752637548,63.17871477008693,69.79684806637044,34.76420572945684,24.52855478824629,15.006665185843255,9.919677414109795,222.10000000000002,895.7,3991.55,4871.6,1208.55,601.65,225.20000000000002,98.4,1,62.00686878883849
7.7168646482881895,16.783920876839236,42.567593307585526,32.85422347278961,11.482595525402782,11.901680553602503,7.784600182411426,6.00416522091123,59.550000000000004,281.7,1812.0,1079.4,131.85,141.65,60.6,36.050000000000004,1,30.614525457053528
7.9088557958784405,13.003845585056753,35.654592972014136,46.4580455895424,12.660963628413123,14.126216761751888,10.273752965688828,7.095773389842717,62.550000000000004,169.10000000000002,1271.25,2158.35,160.3,199.55,105.55000000000001,50.35,1,39.111093139799834
10.538026380684384,22.32487401980132,61.14163883966474,70.30896102204896,18.650737250843463,16.459040069214243,10.772650555921695,13.403357788255898,111.05000000000001,498.40000000000003,3738.3,4943.35,347.85,270.90000000000003,116.05000000000001,179.65,1,48.39811590583945
8.279492738084864,19.215878850575635,39.98812323678119,52.91502622129181,14.35618333680648,12.457929201917949,8.899438184514796,9.22767576370128,68.55,369.25,1599.0500000000002,2800.0,206.10000000000002,155.20000000000002,79.2,85.15,1,50.56488103822297
8.369587803470372,31.024184114977142,41.112042031502156,40.98780306383839,11.588787684654509,15.855598380382874,10.104454463255301,7.3006848993775915,70.05,962.5,1690.2,1680.0,134.3,251.4,102.10000000000001,53.300000000000004,1,40.550082634141674
9.17605579756357,14.177446878757825,41.07614879708174,46.79743582719036,12.403628501370072,12.955693729013511,8.723531395025756,7.803845206050668,84.2,201.0,1687.25,2190.0,153.85000000000002,167.85000000000002,76.10000000000001,60.900000000000006,1,30.40595157653615
10.542770034483347,15.582040944625964,40.74248396943908,38.58108344772085,16.75857989210303,16.126065856246527,12.312595177297109,11.216059914247962,111.15,242.8,1659.95,1488.5,280.85,260.05,151.6,125.80000000000001,1,40.90931638326042
15.203617990465297,29.162475889402806,76.42349115291711,64.23122293713548,26.51226131434284,28.17445651649735,19.7572771403349,13.671137480107499,231.15,850.45,5840.55,4125.650000000001,702.9000000000001,793.8000000000001,390.35,186.9,1,58.5829875611781
13.570187913216236,32.204037014014254,72.72551134230683,68.71389961281487,23.08137777516758,23.665375551636615,16.321764610482532,14.152738250953417,184.15,1037.1000000000001,5289.0,4721.6,532.75,560.0500000000001,266.40000000000003,200.3,1,74.57450124761198
10.651291001564083,27.692959394040933,53.55137719984426,38.63418175657406,20.47559522944327,17.22207885244984,11.222744762311937,7.733045971672482,113.45,766.9000000000001,2867.75,1492.6000000000001,419.25,296.6,125.95,59.800000000000004,1,63.13844427107556
9.362157870918436,35.26613106083513,43.1873824166272,46.58486878805177,20.463381929681123,20.761743664731053,15.17234326002414,7.867655305108378,87.65,1243.7,1865.15,2170.15,418.75,431.05,230.20000000000002,61.900000000000006,1,48.369379808235735
8.663140308225419,19.189841062395487,46.66904755831214,56.8924423803373,16.192590898309017,15.211837495845135,21.195518394226642,10.637198879404297,75.05,368.25,2178.0,3236.75,262.2,231.4,449.25,113.15,1,33.347640177161246
7.800640999302558,14.882876066137216,50.0304907031702,43.04474416232486,14.444722219551334,16.240381768911714,11.020435563080072,10.963576058932597,60.85,221.5,2503.05,1852.8500000000001,208.65,263.75,121.45,120.2,1,48.34976913074118
8.136338242723197,22.3069495897579,47.080250636546104,58.252038590936884,19.24058211177614,15.74166446091391,11.49565135170687,8.988882021697693,66.2,497.6,2216.55,3393.3,370.20000000000005,247.8,132.15,80.80000000000001,1,48.55537066985816
12.856904759700136,28.151376520518493,58.96227607547049,65.9803000902542,20.23116407921205,20.770170918892315,13.64367985552285,9.192388155425117,165.3,792.5,3476.55,4353.400000000001,409.3,431.40000000000003,186.15,84.5,1,47.06202254335669
6.6670833203133135,17.91089054179049,45.62345887808157,41.97677929522464,15.056560032092323,8.938679992034618,6.756478372643548,6.15223536610881,44.45,320.8,2081.5,1762.0500000000002,226.70000000000002,79.9,45.650000000000006,37.85,1,52.29286747677604
8.228000972289685,14.10141836837699,32.52153132925939,40.66939881532551,11.832159566199232,12.491997438360288,8.240145629781066,7.749193506423749,67.7,198.85000000000002,1057.65,1654.0,140.0,156.05,67.9,60.050000000000004,1,39.07249510367049
5.324471804789654,14.049911031746785,42.035699113967404,38.141185089087095,10.121758740456126,14.200352108310554,10.062305898749054,7.436396977031283,28.35,197.4,1767.0,1454.75,102.45,201.65,101.25,55.300000000000004,1,37.27861522161341
4.201190307520001,8.820430828479978,39.99687487792015,53.53503525729669,16.03901493234544,10.606601717798213,7.095773389842717,5.079370039680118,17.650000000000002,77.80000000000001,1599.75,2866.0,257.25,112.5,50.35,25.8,1,32.5607819653612
7.918333157931662,21.084354388977623,56.3546803735058,59.65484054123353,21.16719159454083,18.489186028595203,11.231651704001509,9.984988733093292,62.7,444.55,3175.8500000000004,3558.7000000000003,448.05,341.85,126.15,99.7,1,48.17577762571299
4.024922359499621,14.145670715805595,42.19123131647144,39.04356541096113,17.438463235044537,10.688779163215974,6.682065548915245,6.212889826803627,16.2,200.10000000000002,1780.1000000000001,1524.4,304.1,114.25,44.650000000000006,38.6,1,49.27295584498863
6.689544080129826,14.415269681833914,42.10047505670215,51.65607418300388,13.13202193114221,13.230646242719969,8.740709353364863,7.116881339463234,44.75,207.8,1772.45,2668.3500000000004,172.45000000000002,175.05,76.4,50.650000000000006,1,31.611960872578585
5.181698563212646,10.786565718522276,35.75611835756225,36.94184619100675,10.0772019926168,11.76010204037363,8.754998572244316,6.0332412515993425,26.85,116.35000000000001,1278.5,1364.7,101.55000000000001,138.3,76.65,36.4,1,38.92829670713222
5.5677643628300215,15.440207252495027,43.36703817417094,40.92493127666801,18.128706517564897,10.929318368498558,7.546522377890362,5.329165037789691,31.0,238.4,1880.7,1674.8500000000001,328.65000000000003,119.45,56.95,28.400000000000002,1,39.561578265866615
5.371219600798314,12.613484847574837,35.33765696816924,37.75182114812476,12.670832648251654,8.06225774829855,6.024948132556827,5.380520420925842,28.85,159.10000000000002,1248.75,1425.2,160.55,65.0,36.300000000000004,28.950000000000003,1,31.4356363929646
5.229722745997153,10.497618777608569,28.92749557082327,37.820629291433,13.0,10.981803130633876,8.276472678623424,6.81175454637056,27.35,110.2,836.8000000000001,1430.4,169.0,120.60000000000001,68.5,46.400000000000006,1,32.13257626949627
5.8779248038742375,13.594116374373144,42.68664896662656,40.83625839863392,15.188811671753653,10.756393447619885,6.29285308902091,5.822370651203855,34.550000000000004,184.8,1822.15,1667.6000000000001,230.70000000000002,115.7,39.6,33.9,1,35.80707226872493
7.151922818375489,15.642889758609181,40.98780306383839,37.92888081660201,16.073269735806715,10.81434232859308,7.446475676452586,8.488227141164401,51.150000000000006,244.70000000000002,1680.0,1438.6000000000001,258.35,116.95,55.45,72.05,1,36.33056784778253
7.703895118704564,16.754103974847474,53.306191010050604,47.27472897859913,15.121177202850312,11.757976016304847,9.186947262284681,9.536770941990795,59.35,280.7,2841.55,2234.9,228.65,138.25,84.4,90.95,1,47.14699703694451
5.463515351859094,12.595634164265013,36.663333181804404,47.683330420598764,12.729886095327013,12.974975915199225,7.44983221287567,7.207634840916957,29.85,158.65,1344.2,2273.7000000000003,162.05,168.35000000000002,55.5,51.95,1,44.98476209592752
5.490901565316938,12.741663941573721,39.81519810323691,43.512067291729544,15.404544783926593,9.76985158536198,8.228000972289685,5.481788029466299,30.150000000000002,162.35000000000002,1585.25,1893.3000000000002,237.3,95.45,67.7,30.05,1,38.23926564252068
5.417564028232615,11.386395390991831,35.33058165385903,42.73581636051896,11.872236520555004,11.502173707608488,8.792041856133306,5.6964901474504455,29.35,129.65,1248.25,1826.3500000000001,140.95000000000002,132.3,77.30000000000001,32.45,1,37.57288987854798
29.45420173761292,17.558473737771173,19.438364128701778,5.162363799656123,6.288879073412049,9.030503861911582,35.94926981177782,43.9306271296006,867.5500000000001,308.3,377.85,26.650000000000002,39.550000000000004,81.55000000000001,1292.3500000000001,1929.9,2,28.771560695194555
19.724350432903996,16.146206984923733,15.827191791344413,7.273238618387272,6.855654600401044,8.891006692158093,34.6893355370206,22.74642829105264,389.05,260.7,250.5,52.900000000000006,47.0,79.05000000000001,1203.3500000000001,517.4,2,33.33852771032662
25.958620918685185,11.128791488746655,14.489651479590528,7.784600182411426,4.748684028233506,9.463086177352503,42.843319199147025,46.82947789587238,673.85,123.85000000000001,209.95000000000002,60.6,22.55,89.55000000000001,1835.5500000000002,2193.0,2,34.78795309346251
17.69180601295413,8.136338242723197,8.093207028119323,9.2951600308978,4.979959839195493,7.625614729318548,19.270443689754526,37.82856063875548,313.0,66.2,65.5,86.4,24.8,58.150000000000006,371.35,1431.0,2,42.32901926731393
29.204451715449135,24.13710836036496,21.77154105707724,7.762087348130012,8.037412518964047,13.380956617521784,35.07919611393625,53.79823417176441,852.9000000000001,582.6,474.0,60.25,64.60000000000001,179.05,1230.5500000000002,2894.25,2,35.57307235438573
28.00446392988089,16.844880527923017,17.15225932639779,11.253888216967503,9.67987603226405,14.51895313030523,35.540821599957425,26.190647185588983,784.25,283.75,294.2,126.65,93.7,210.8,1263.15,685.95,2,39.994440678676696
18.41738309315414,20.10348228541513,16.946976131451887,8.018728078691781,6.395310782127793,7.321202087089251,20.66639784771405,16.997058569058353,339.20000000000005,404.15000000000003,287.2,64.3,40.900000000000006,53.6,427.1,288.90000000000003,2,17.34301909457475
26.42347441196937,14.537881551312763,14.411800720243116,7.463243262818116,7.113367697511496,9.578622030334008,21.437117343523592,17.659275183313724,698.2,211.35000000000002,207.70000000000002,55.7,50.6,91.75,459.55,311.85,2,17.32816687618604
21.68524844220144,14.12267680009707,14.422205101855956,5.886425061104575,5.094114250780011,6.107372593840988,21.333072915077192,33.221228153095126,470.25,199.45000000000002,208.0,34.65,25.950000000000003,37.300000000000004,455.1,1103.65,2,24.400832301989002
16.067047021777213,23.6082612659213,25.977875201794316,12.467958934805647,8.252272414311102,10.765686229869418,38.59015418471401,43.96134665817233,258.15000000000003,557.35,674.85,155.45000000000002,68.10000000000001,115.9,1489.2,1932.6000000000001,2,38.59128740563372
27.12286857985342,33.78091176981462,27.179955849853766,11.868024266911489,10.067273712381123,8.206704576137732,36.24913792078372,34.57817230566127,735.6500000000001,1141.15,738.75,140.85,101.35000000000001,67.35000000000001,1314.0,1195.65,2,39.26975948191679
23.087875606040498,24.964975465639856,17.030854353202603,8.972179222463181,10.401922899156675,10.688779163215974,33.549217576569504,27.74977477386078,533.0500000000001,623.25,290.05,80.5,108.2,114.25,1125.55,770.0500000000001,2,31.16397353976102
15.61569723067145,10.319883720275147,13.053735097664577,7.1449282711585,5.757603668193912,7.60920495189872,22.601991062736044,28.660076761934885,243.85000000000002,106.5,170.4,51.050000000000004,33.15,57.900000000000006,510.85,821.4000000000001,2,20.79049502117485
18.718974330876144,7.7781745930520225,10.285912696499032,10.21273714534943,6.704476116744694,8.809086218218097,22.63625410707346,36.80557023060504,350.40000000000003,60.5,105.80000000000001,104.30000000000001,44.95,77.60000000000001,512.4,1354.65,2,32.73282349626996
19.11151485361639,9.404786015641186,14.449913494550755,8.910667763978186,10.293201639917484,10.924742559895861,22.41874215918458,36.840195439221006,365.25,88.45,208.8,79.4,105.95,119.35000000000001,502.6,1357.2,2,36.82288283491302
14.216187955988763,8.40535543567314,12.517987058628874,6.913754406977442,6.704476116744694,9.617692030835672,29.888961172981574,37.32492464828295,202.10000000000002,70.65,156.70000000000002,47.800000000000004,44.95,92.5,893.35,1393.15,2,37.082560043751975
13.251415018781957,10.447487736293352,15.519342769589182,6.06217782649107,5.324471804789654,6.2088646305101545,30.22664387589201,35.837829175328125,175.60000000000002,109.15,240.85000000000002,36.75,28.35,38.550000000000004,913.6500000000001,1284.3500000000001,2,36.581376911805535
10.979526401443735,5.324471804789654,6.29285308902091,6.074537019394976,6.328506932918696,11.077003204838391,19.40876090841453,37.62911107108431,120.55000000000001,28.35,39.6,36.9,40.050000000000004,122.7,376.70000000000005,1415.95,2,36.73347012320622
20.724381776062707,11.425847889762931,7.8453808065638215,6.6332495807108,5.796550698475776,7.516648189186454,24.7325696198353,25.386019774671254,429.5,130.55,61.550000000000004,44.0,33.6,56.5,611.7,644.45,2,18.623861428219108
34.45504317222662,16.295704955601032,9.939818911831342,5.239274758971894,7.088723439378913,7.794228634059948,21.850629281556174,30.741665537182595,1187.15,265.55,98.80000000000001,27.450000000000003,50.25,60.75,477.45000000000005,945.0500000000001,2,28.06384265592692
32.24515467477246,15.131093813733361,11.937336386313323,13.509256086106296,9.544631999192006,7.896201618499872,30.162891108114952,36.26706494879342,1039.75,228.95000000000002,142.5,182.5,91.10000000000001,62.35,909.8000000000001,1315.3000000000002,2,33.504365242988
38.796262706606164,32.48076353782343,13.48332303254654,6.749074010558782,7.483314773547883,8.55277732669336,25.39389690457138,28.170906978654415,1505.15,1055.0,181.8,45.550000000000004,56.0,73.15,644.85,793.6,2,32.21898596372391
31.176914536239792,20.094775440397438,18.760330487494084,8.318653737234168,7.2180329730474355,7.249137879775773,28.83400769924292,42.119472931175196,972.0,403.8,351.95000000000005,69.2,52.1,52.550000000000004,831.4000000000001,1774.0500000000002,2,29.770362160679763
28.36899716239543,23.616731357239086,13.926593266122191,11.827933040053955,8.683317338436964,9.76985158536198,39.82838184008986,35.706441995807985,804.8000000000001,557.75,193.95000000000002,139.9,75.4,95.45,1586.3000000000002,1274.95,2,38.91295746349158
20.097263495311992,25.593944596329813,15.331340450201997,10.175952043912156,8.294576541331088,7.92464510246358,40.13415004706092,34.85828452462915,403.90000000000003,655.0500000000001,235.05,103.55000000000001,68.8,62.800000000000004,1610.75,1215.1000000000001,2,35.28236326021856
19.474342094150447,10.466613587975816,7.416198487095663,7.52994023880668,5.890670590009257,6.148170459575759,16.881943016134134,16.519685227025363,379.25,109.55000000000001,55.0,56.7,34.7,37.800000000000004,285.0,272.90000000000003,2,15.4596690003084
20.654297373670207,10.931605554537724,12.469963913339926,5.903388857258177,6.276941930590086,8.423182296495785,15.754364474646383,18.939376969689366,426.6,119.5,155.5,34.85,39.400000000000006,70.95,248.20000000000002,358.70000000000005,2,17.729531098357356
13.45548215412588,17.488567694353932,12.810152223919902,7.13792686989717,5.024937810560445,8.252272414311102,34.40058139043583,27.621549558270623,181.05,305.85,164.10000000000002,50.95,25.25,68.10000000000001,1183.4,762.95,2,18.101753688428612
14.866068747318506,19.759807691371897,17.937391114652097,11.70256382165891,5.805170109479997,7.273238618387272,30.366922794382706,50.055968675074105,221.0,390.45000000000005,321.75,136.95000000000002,33.7,52.900000000000006,922.1500000000001,2505.6000000000004,2,38.83875911667236
22.311432047271193,14.575664650368434,14.5,8.043631020876083,7.19027120489902,9.78263768111648,34.30451865279558,61.04260807010133,497.8,212.45000000000002,210.25,64.7,51.7,95.7,1176.8,3726.2000000000003,2,55.54928837258771
31.694636770280237,31.10385828157015,21.118712081942874,11.567194992737004,8.955445270895245,12.918978287774928,42.81997197570311,47.559436497923315,1004.5500000000001,967.45,446.0,133.8,80.2,166.9,1833.5500000000002,2261.9,2,54.30102228401231
21.12581359380036,22.712331452319024,22.22386105068154,9.12414379544733,14.837452611550273,18.62256695517565,60.39412223056148,61.0151620501003,446.3,515.85,493.90000000000003,83.25,220.15,346.8,3647.4500000000003,3722.8500000000004,2,54.2872992740118
18.750999973334757,22.462190454183226,18.930134706335295,10.917875251164945,9.262828941527529,10.63014581273465,40.7602747782691,52.99009341376933,351.6,504.55,358.35,119.2,85.80000000000001,113.0,1661.4,2807.9500000000003,2,57.00262773193481
14.84082207965583,23.235748320206948,10.686440005914037,7.88986691902975,7.341661937191061,11.526057435220423,32.940097146183405,39.77562067397566,220.25,539.9,114.2,62.25,53.900000000000006,132.85,1085.05,1582.1000000000001,2,46.382857043872484
9.126883367283709,11.861703081766969,13.505554412907307,5.852349955359813,8.823264701911645,9.195107394696377,32.05932001774211,32.90440699967103,83.30000000000001,140.70000000000002,182.4,34.25,77.85000000000001,84.55000000000001,1027.8,1082.7,2,36.34001383682333
32.336511871257855,20.534117950377123,10.75174404457249,7.6583287994183165,5.343220002957018,5.783597496368502,25.037971163814372,33.197891499310614,1045.65,421.65000000000003,115.60000000000001,58.650000000000006,28.55,33.45,626.9000000000001,1102.1000000000001,2,23.86960596726965
35.432329869767244,21.63792966066763,18.42145488282617,14.657762448614045,10.264014809030625,15.308494374039531,36.4671084677686,46.29686814461643,1255.45,468.20000000000005,339.35,214.85000000000002,105.35000000000001,234.35000000000002,1329.8500000000001,2143.4,2,39.74737982196351
13.371611720357423,26.148613729985765,14.722431864335457,7.379024325749306,7.067531393633848,9.505261700763425,32.5123053627392,26.053790511171304,178.8,683.75,216.75,54.45,49.95,90.35000000000001,1057.05,678.8000000000001,2,36.175329327893856
22.004544985070698,12.761269529321916,13.718600511714014,6.438167441127949,6.053924347066125,6.082762530298219,25.188290930509755,31.935090417908636,484.20000000000005,162.85000000000002,188.20000000000002,41.45,36.65,37.0,634.45,1019.85,2,25.22294903590859
31.72459613612126,19.595917942265423,15.522564221158822,6.884765791223402,5.417564028232615,7.392563831310488,20.426698215815495,36.808966298987535,1006.45,384.0,240.95000000000002,47.400000000000006,29.35,54.650000000000006,417.25,1354.9,2,34.37202835844807
31.641744578957717,36.2270617080657,29.316377675285874,9.646242791885346,9.268225288586807,9.327379053088816,32.33496559453868,35.19445979127965,1001.2,1312.4,859.45,93.05000000000001,85.9,87.0,1045.55,1238.65,2,36.00171304513357
20.359273071502333,12.951833846988619,13.390294993016397,8.130190649671137,5.783597496368502,7.392563831310488,28.115831839019098,39.356066876658296,414.5,167.75,179.3,66.10000000000001,33.45,54.650000000000006,790.5,1548.9,2,37.27526333396896
20.756926554767208,11.353413583587978,10.848963084092414,4.8270073544588685,7.221495689952325,7.5398938984577235,29.899832775452108,33.0696235237113,430.85,128.9,117.7,23.3,52.150000000000006,56.85,894.0,1093.6000000000001,2,25.887618827116846
22.32823324851297,14.876155417311288,13.780420893427022,5.612486080160912,10.464224768228174,11.813128290169374,31.418147622035264,28.2444684849972,498.55,221.3,189.9,31.5,109.5,139.55,987.1,797.75,2,30.657046004354235
43.02092514114498,62.82992917392156,26.07872696279479,8.526429498916883,8.949860334105779,10.295630140987,7.615773105863909,15.778149447891536,1850.8000000000002,3947.6000000000004,680.1,72.7,80.10000000000001,106.0,58.0,248.95000000000002,3,47.18003674030027
39.07684736515984,49.230072110448916,23.43181597742693,8.40535543567314,12.206555615733702,14.66628787389638,15.5,28.358420266298335,1527.0,2423.6,549.0500000000001,70.65,149.0,215.10000000000002,240.25,804.2,3,56.03000064218524
27.13300573102803,85.26488139908481,31.329698370715285,11.280514172678478,14.964959071110083,21.77842969545784,25.328837320335097,51.60426338976267,736.2,7270.1,981.5500000000001,127.25,223.95000000000002,474.3,641.5500000000001,2663.0,3,67.24747675476686
50.6877697280123,85.70764259971219,54.72293851759059,13.798550648528272,22.7574163735693,20.048690730319525,27.000925910049826,56.675832592031675,2569.25,7345.8,2994.6000000000004,190.4,517.9,401.95000000000005,729.0500000000001,3212.15,3,85.4862619993985
59.012710495282285,72.5658321801659,47.879536338607124,14.560219778561036,14.170391667134682,14.553350129781116,18.82153022471871,39.857872497161715,3482.5,5265.8,2292.4500000000003,212.0,200.8,211.8,354.25,1588.65,3,56.86172800914183
42.81705267764235,81.14678058925074,37.097843603099086,15.749603169603988,16.507574019219177,18.786963565195947,21.001190442448735,34.75917145157519,1833.3000000000002,6584.8,1376.25,248.05,272.5,352.95000000000005,441.05,1208.2,3,76.85630638470832
51.837245297179905,82.85861451895029,49.378639106399035,15.668439615992398,24.183672177731818,17.91089054179049,21.351814911149823,38.96472763923803,2687.1000000000004,6865.55,2438.25,245.5,584.85,320.8,455.90000000000003,1518.25,3,73.44961331672576
56.17250216965593,80.73320258728747,39.600505047284436,14.736010314871526,15.638094513079272,20.442602574036407,23.92592735924775,49.39433165860229,3155.3500000000004,6517.85,1568.2,217.15,244.55,417.90000000000003,572.45,2439.8,3,54.764951893625664
53.40599217316349,80.03249340111802,65.4858763398643,18.924851386470646,23.047776465420693,30.670833050310193,30.286135441815617,42.101662675006075,2852.2000000000003,6405.200000000001,4288.400000000001,358.15000000000003,531.2,940.7,917.25,1772.5500000000002,3,53.777151467324884
55.53782494840791,89.05026670369944,55.075856779536345,23.651638421048126,21.587033144922902,22.758514890036214,23.89979079406345,46.02988159880492,3084.4500000000003,7929.950000000001,3033.3500000000004,559.4,466.0,517.95,571.2,2118.75,3,84.54138005240873
47.34553833256097,83.03463132934354,58.00775810182635,13.845576911057192,22.118996360594664,23.366642891095847,23.804411355881076,43.37107330929222,2241.6,6894.75,3364.9,191.70000000000002,489.25,546.0,566.65,1881.0500000000002,3,67.11003923993823
48.654907255075514,86.33539251083532,60.659294423855606,19.288597668052493,16.503030024816656,18.009719598039275,22.085062825357777,36.6626512952896,2367.3,7453.8,3679.55,372.05,272.35,324.35,487.75,1344.15,3,66.59284299988866
39.03652136141231,85.14722543923554,37.64306044943742,15.069837424471439,22.74642829105264,20.108455932766194,15.916972073858771,44.36214602563767,1523.8500000000001,7250.05,1417.0,227.10000000000002,517.4,404.35,253.35000000000002,1968.0,3,85.74130897503542
35.878266401820476,53.33854141237835,27.779488836189913,13.514806694880988,15.134397906755327,13.751363568752009,12.718097341976904,24.3567239176372,1287.25,2845.0,771.7,182.65,229.05,189.10000000000002,161.75,593.25,3,57.89105797085421
48.6389761405398,71.8226983620081,47.82363432446346,18.553975315279473,21.997727155322206,26.537709019431198,28.993102628038965,51.52960314227153,2365.75,5158.5,2287.1,344.25,483.90000000000003,704.25,840.6,2655.3,3,44.12718754358154
49.14773646873272,68.36483013948035,52.27092882281699,17.379585725787596,15.80506248010428,15.401298646542765,20.692993983471798,39.43792590895216,2415.5,4673.75,2732.25,302.05,249.8,237.20000000000002,428.20000000000005,1555.3500000000001,3,70.09376425074421
52.91738844652105,79.08634521837509,50.06146222395027,16.32482771731451,12.926716520447101,14.067693485429658,24.67184630302321,48.72371086031933,2800.25,6254.650000000001,2506.15,266.5,167.10000000000002,197.9,608.7,2374.0,3,57.932027929734275
36.96958209122738,72.81929689306263,44.96276237065512,25.526456863419178,17.419816302131316,26.042273326267047,30.50163930020811,42.3461922727416,1366.75,5302.650000000001,2021.65,651.6,303.45,678.2,930.35,1793.2,3,75.95282105571886
52.32446846361652,74.7993983933026,57.85196625871933,20.900956915892632,18.390214789392754,18.686893802876924,24.096680269281908,31.434853268307137,2737.8500000000004,5594.950000000001,3346.8500000000004,436.85,338.20000000000005,349.20000000000005,580.65,988.1500000000001,3,51.563914670866595
55.62103918482645,80.48788728746705,45.841575016572015,25.972100415638316,13.311649033834989,28.385735854474515,29.993332592427937,54.378764237521985,3093.7000000000003,6478.3,2101.4500000000003,674.5500000000001,177.20000000000002,805.75,899.6,2957.05,3,61.16044430708541
30.112289849827096,70.41377706102692,32.93326585688094,13.384692749555366,12.780845042484476,14.354441821262157,14.350958156165044,25.599804686754936,906.75,4958.1,1084.6000000000001,179.15,163.35000000000002,206.05,205.95000000000002,655.35,3,52.4601490919262
51.53251400814829,90.67138468116609,39.131189606246316,16.054594358002323,17.34646938140439,18.271562604221895,16.701796310576896,28.449956063234964,2655.6000000000004,8221.300000000001,1531.25,257.75,300.90000000000003,333.85,278.95,809.4000000000001,3,80.5425808710965
13.007690033207279,19.094501826442084,28.833140654462184,35.74842653880028,12.049896265113654,8.651589449343975,8.958236433584458,14.761436244485155,169.20000000000002,364.6,831.35,1277.95,145.20000000000002,74.85000000000001,80.25,217.9,4,24.266591543563834
13.418271125595876,27.66224864323217,22.142718893577637,22.66164159984885,7.870832230456955,6.070420084310475,12.047821379818012,14.489651479590528,180.05,765.2,490.3,513.5500000000001,61.95,36.85,145.15,209.95000000000002,4,29.205034069324565
11.043097391583578,7.6452599694189605,22.102036105300343,27.44813290553658,9.343446901438462,10.10940156488009,9.126883367283709,10.195587280779858,121.95,58.45,488.5,753.4000000000001,87.30000000000001,102.2,83.30000000000001,103.95,4,21.95890099876859
18.51485889765299,18.852055590836773,36.893766411143226,28.008927148321835,11.575836902790225,12.365273955719704,9.50789145920377,17.11286066091815,342.8,355.40000000000003,1361.15,784.5,134.0,152.9,90.4,292.85,4,27.161685925402075
12.674778104566565,22.722235805483578,26.9462427807663,23.547823678633232,7.151922818375489,6.407027391856539,13.326664999166145,19.64306493396588,160.65,516.3000000000001,726.1,554.5,51.150000000000006,41.050000000000004,177.60000000000002,385.85,4,25.77837541347753
12.872451204024818,8.558621384311845,25.629085040242853,30.37268509697488,7.739509028355739,8.851553535961921,6.978538528947161,12.763228431709589,165.70000000000002,73.25,656.85,922.5,59.900000000000006,78.35000000000001,48.7,162.9,4,20.236095017668475
16.3508409569661,22.46775467197379,37.35773012376421,24.84451649760969,7.886697661252142,8.133265027035575,10.583005244258363,12.662938047704412,267.35,504.8,1395.6000000000001,617.25,62.2,66.15,112.0,160.35000000000002,4,27.608600797292283
12.83744522870497,28.916258402497373,36.029848736845956,29.71110903349116,10.504760825454333,12.621410380777577,17.7792013318934,23.59872877932199,164.8,836.1500000000001,1298.15,882.75,110.35000000000001,159.3,316.1,556.9,4,24.284897017683804
18.905025786811294,50.38898689197869,50.942124023248184,35.53308317610505,13.82931668593933,13.30413469565007,16.745148551147583,22.494443758403985,357.40000000000003,2539.05,2595.1000000000004,1262.6000000000001,191.25,177.0,280.40000000000003,506.0,4,32.6220961047981
16.387495232646142,32.81615455838786,32.245929975734924,25.384050110256243,8.974965180990955,13.202272531651511,14.89966442575134,14.966629547095765,268.55,1076.9,1039.8,644.35,80.55000000000001,174.3,222.0,224.0,4,30.458566643180646
14.81046927008054,7.395944834840239,24.60081299469593,30.601470552899904,9.899494936611665,8.449852069711044,11.726039399558575,19.106281689538655,219.35000000000002,54.7,605.2,936.45,98.0,71.4,137.5,365.05,4,21.122032382765692
24.898795151573097,39.527838291512985,47.16672555944498,27.020362691866296,12.060265337047937,13.796738745080303,27.47544358149655,29.602364770403057,619.95,1562.45,2224.7000000000003,730.1,145.45000000000002,190.35000000000002,754.9000000000001,876.3000000000001,4,28.8109166223831
17.20900926840357,41.1242021199196,32.77880412705748,27.45541840875859,9.62029105588807,8.803408430829505,14.177446878757825,27.64416755845616,296.15000000000003,1691.2,1074.45,753.8000000000001,92.55000000000001,77.5,201.0,764.2,4,27.237890550312443
11.043097391583578,17.711578134090704,35.46195144094583,28.619923130574616,10.375451797391765,12.702361985079783,13.992855319769443,20.75572210259137,121.95,313.70000000000005,1257.5500000000002,819.1,107.65,161.35000000000002,195.8,430.8,4,28.037670769666605
21.108055334397815,7.54983443527075,21.65987072906946,29.888961172981574,8.139410298049853,6.760177512462229,16.396645998496158,25.072893730082292,445.55,57.0,469.15000000000003,893.35,66.25,45.7,268.85,628.6500000000001,4,25.471232222204435
16.198765385053267,25.229942528670176,21.34478859112922,20.929644048573785,9.327379053088816,8.969392398596462,18.196153439669605,24.639399343328158,262.40000000000003,636.5500000000001,455.6,438.05,87.0,80.45,331.1,607.1,4,25.40930261077768
8.854377448471462,36.584832922947726,32.00781154655844,24.212600025606502,8.372574275573792,9.126883367283709,14.028542333400146,25.48627081391077,78.4,1338.45,1024.5,586.25,70.10000000000001,83.30000000000001,196.8,649.5500000000001,4,22.57112203709014
16.11365880239494,13.54437152473307,32.00312484742701,28.53419001829209,10.613670430157514,11.593101396951552,27.07951255100431,40.252950202438576,259.65000000000003,183.45000000000002,1024.2,814.2,112.65,134.4,733.3000000000001,1620.3000000000002,4,25.73825449718386
12.190159966136621,22.616365755797283,30.616172197059516,22.5055548698538,9.074690077352503,10.761040841851685,22.07034209068813,26.25547561938271,148.6,511.5,937.35,506.5,82.35000000000001,115.80000000000001,487.1,689.35,4,25.519872444072945
9.270922284217466,22.992390045404154,33.41032774457623,28.24535360019414,11.968709203585824,12.413702106946179,16.656830430787245,12.21065108829173,85.95,528.65,1116.25,797.8000000000001,143.25,154.10000000000002,277.45,149.1,4,25.41537355507991
13.4740491315714,53.64792633457513,32.52844908691467,24.9899979991996,9.386160024205852,10.580642702596096,16.989702763733096,22.37409216035368,181.55,2878.1000000000004,1058.1000000000001,624.5,88.10000000000001,111.95,288.65000000000003,500.6,4,26.61767579969687
17.79606698121807,24.817332652805376,30.337270806715622,34.449238017697866,8.882567196480982,7.486654793697917,33.648179742743885,23.368782595591068,316.70000000000005,615.9000000000001,920.35,1186.75,78.9,56.050000000000004,1132.2,546.1,4,25.802934694343374
20.43404022703293,73.97465782279767,61.78430221342635,42.4458478534709,13.408952233489387,13.627178724886527,12.96148139681572,23.381616710569865,417.55,5472.25,3817.3,1801.65,179.8,185.70000000000002,168.0,546.7,4,38.44754293558438
22.076005073382277,22.0873266829646,34.258575568753585,29.058561561095896,11.412712210513327,10.575916035975323,26.857028875138067,28.53769437077915,487.35,487.85,1173.65,844.4000000000001,130.25,111.85000000000001,721.3000000000001,814.4000000000001,4,35.7522047072834
2.479919353527449,3.9115214431215892,2.224859546128699,1.378404875209022,2.924038303442689,3.8600518131237567,2.7838821814150108,4.364630568559039,6.15,15.3,4.95,1.9000000000000001,8.55,14.9,7.75,19.05,5,
2.792848008753788,4.8425200051213,1.6278820596099706,1.746424919657298,4.47213595499958,1.9235384061671346,3.63318042491699,4.652956049652737,7.800000000000001,23.450000000000003,2.6500000000000004,3.0500000000000003,20.0,3.7,13.200000000000001,21.650000000000002,5,
2.3769728648009427,4.266145801540309,2.247220505424423,1.8841443681416772,3.248076353782343,2.0124611797498106,1.9493588689617927,3.687817782917155,5.65,18.2,5.050000000000001,3.5500000000000003,10.55,4.05,3.8000000000000003,13.600000000000001,5,
1.6583123951777,2.5099800796022267,1.9874606914351791,1.760681686165901,2.958039891549808,2.3130067012440754,2.2693611435820435,2.2135943621178655,2.75,6.300000000000001,3.95,3.1,8.75,5.3500000000000005,5.15,4.9,5,
1.449137674618944,2.7477263328068173,2.4698178070456938,2.0371548787463363,3.2171415884290826,2.4289915602982237,1.8973665961010275,2.479919353527449,2.1,7.550000000000001,6.1000000000000005,4.15,10.350000000000001,5.9,3.6,6.15,5,
1.7888543819998317,2.6551836094703507,2.0976176963403033,2.0248456731316584,3.122498999199199,1.9874606914351791,1.61245154965971,2.6267851073127395,3.2,7.050000000000001,4.4,4.1000000000000005,9.75,3.95,2.6,6.9,5,
1.6733200530681511,2.4899799195977463,2.355843797877949,1.8027756377319946,1.8303005217723127,1.70293863659264,1.9364916731037085,3.024896692450835,2.8000000000000003,6.2,5.550000000000001,3.25,3.35,2.9000000000000004,3.75,9.15,5,
1.8973665961010275,2.6267851073127395,2.5099800796022267,2.0371548787463363,3.456877203488721,3.2171415884290826,2.1330729007701543,2.0,3.6,6.9,6.300000000000001,4.15,11.950000000000001,10.350000000000001,4.55,4.0,5,
1.3038404810405297,3.263433774416144,2.23606797749979,2.569046515733026,2.32379000772445,2.280350850198276,2.3979157616563596,1.4832396974191326,1.7000000000000002,10.65,5.0,6.6000000000000005,5.4,5.2,5.75,2.2,5,
1.816590212458495,2.1563858652847827,1.7175564037317668,2.2135943621178655,2.6267851073127395,2.1330729007701543,2.1563858652847827,2.345207879911715,3.3000000000000003,4.65,2.95,4.9,6.9,4.55,4.65,5.5,5,
2.0976176963403033,3.2326459750489227,1.5652475842498528,2.16794833886788,2.32379000772445,1.61245154965971,1.4142135623730951,2.598076211353316,4.4,10.450000000000001,2.45,4.7,5.4,2.6,2.0,6.75,5,
1.70293863659264,2.701851217221259,2.449489742783178,2.479919353527449,2.9916550603303182,1.9235384061671346,2.539685019840059,2.692582403567252,2.9000000000000004,7.300000000000001,6.0,6.15,8.950000000000001,3.7,6.45,7.25,5,
1.7320508075688772,2.9916550603303182,2.4392621835300936,1.5491933384829668,2.3130067012440754,1.8841443681416772,2.5787593916455256,2.3021728866442674,3.0,8.950000000000001,5.95,2.4000000000000004,5.3500000000000005,3.5500000000000003,6.65,5.300000000000001,5,
1.5329709716755893,2.9068883707497264,2.4596747752497685,1.6881943016134133,3.5142566781611158,2.3664319132398464,2.29128784747792,1.6733200530681511,2.35,8.450000000000001,6.050000000000001,2.85,12.350000000000001,5.6000000000000005,5.25,2.8000000000000003,5,
1.61245154965971,3.3689761055846033,2.073644135332772,1.9364916731037085,2.7202941017470885,2.0371548787463363,1.6733200530681511,2.1330729007701543,2.6,11.350000000000001,4.3,3.75,7.4,4.15,2.8000000000000003,4.55,5,
2.4392621835300936,3.3466401061363023,2.6739483914241875,2.0124611797498106,2.8635642126552705,1.9364916731037085,2.1908902300206643,2.7386127875258306,5.95,11.200000000000001,7.15,4.05,8.200000000000001,3.75,4.800000000000001,7.5,5,
1.7888543819998317,3.5425979167836705,1.8439088914585775,2.1095023109728985,2.692582403567252,1.378404875209022,1.816590212458495,2.598076211353316,3.2,12.55,3.4000000000000004,4.45,7.25,1.9000000000000001,3.3000000000000003,6.75,5,
2.1330729007701543,3.24037034920393,2.7748873851023217,2.3979157616563596,3.1064449134018135,2.29128784747792,1.9364916731037085,3.0166206257996713,4.55,10.5,7.7,5.75,9.65,5.25,3.75,9.1,5,
1.9364916731037085,3.331666249791536,2.280350850198276,2.179449471770337,2.9748949561287032,2.8284271247461903,2.3021728866442674,3.03315017762062,3.75,11.100000000000001,5.2,4.75,8.85,8.0,5.300000000000001,9.200000000000001,5,
2.2693611435820435,2.5787593916455256,1.8973665961010275,1.9364916731037085,2.5199206336708304,2.1330729007701543,1.6583123951777,2.3979157616563596,5.15,6.65,3.6,3.75,6.3500000000000005,4.55,2.75,5.75,5,
2.04939015319192,3.1144823004794873,2.355843797877949,2.711088342345192,3.1859064644147983,2.4083189157584592,1.91049731745428,3.0659419433511785,4.2,9.700000000000001,5.550000000000001,7.3500000000000005,10.15,5.800000000000001,3.6500000000000004,9.4,5,
1.5491933384829668,3.0740852297878796,1.7888543819998317,2.1447610589527217,2.4289915602982237,2.6362852652928135,2.3979157616563596,3.03315017762062,2.4000000000000004,9.450000000000001,3.2,4.6000000000000005,5.9,6.95,5.75,9.200000000000001,5,
1.396424004376894,3.1064449134018135,2.32379000772445,2.6172504656604803,2.4698178070456938,2.711088342345192,2.5298221281347035,2.073644135332772,1.9500000000000002,9.65,5.4,6.8500000000000005,6.1000000000000005,7.3500000000000005,6.4,4.3,5,
1.6583123951777,2.8284271247461903,1.816590212458495,1.760681686165901,2.898275349237888,2.0248456731316584,1.6733200530681511,2.3021728866442674,2.75,8.0,3.3000000000000003,3.1,8.4,4.1000000000000005,2.8000000000000003,5.300000000000001,5,
1.8439088914585775,2.6172504656604803,1.4832396974191326,2.1447610589527217,2.7838821814150108,2.04939015319192,2.202271554554524,1.9874606914351791,3.4000000000000004,6.8500000000000005,2.2,4.6000000000000005,7.75,4.2,4.8500000000000005,3.95,5,
1.3416407864998738,2.6076809620810595,1.3038404810405297,1.6583123951777,2.6076809620810595,2.80178514522438,1.7748239349298849,1.6881943016134133,1.8,6.800000000000001,1.7000000000000002,2.75,6.800000000000001,7.8500000000000005,3.1500000000000004,2.85,5,
1.5329709716755893,2.8809720581775866,2.2135943621178655,1.9874606914351791,2.1563858652847827,1.6278820596099706,2.224859546128699,2.0124611797498106,2.35,8.3,4.9,3.95,4.65,2.6500000000000004,4.95,4.05,5,
1.6278820596099706,2.8635642126552705,2.1213203435596424,2.073644135332772,2.5787593916455256,2.6076809620810595,1.816590212458495,2.2693611435820435,2.6500000000000004,8.200000000000001,4.5,4.3,6.65,6.800000000000001,3.3000000000000003,5.15,5,
1.5968719422671311,3.2015621187164243,2.2135943621178655,2.7658633371878665,3.4132096331752027,2.0371548787463363,1.816590212458495,2.3130067012440754,2.5500000000000003,10.25,4.9,7.65,11.65,4.15,3.3000000000000003,5.3500000000000005,5,
1.6881943016134133,2.8106938645110393,1.6733200530681511,2.4698178070456938,3.0,2.819574435974337,2.280350850198276,3.024896692450835,2.85,7.9,2.8000000000000003,6.1000000000000005,9.0,7.95,5.2,9.15,5,
1.6583123951777,2.8548204847240397,1.6583123951777,2.073644135332772,2.9154759474226504,1.8303005217723127,1.857417562100671,1.7888543819998317,2.75,8.15,2.75,4.3,8.5,3.35,3.45,3.2,5,
2.0124611797498106,3.1780497164141406,2.04939015319192,2.32379000772445,2.4289915602982237,1.760681686165901,1.2649110640673518,2.0371548787463363,4.05,10.100000000000001,4.2,5.4,5.9,3.1,1.6,4.15,5,
2.4289915602982237,3.024896692450835,2.4698178070456938,1.9235384061671346,2.6645825188948455,2.2135943621178655,2.0615528128088303,2.6457513110645907,5.9,9.15,6.1000000000000005,3.7,7.1000000000000005,4.9,4.25,7.0,5,
2.1908902300206643,3.4856850115866753,2.179449471770337,2.8372521918222215,2.5592967784139455,2.6267851073127395,2.0124611797498106,2.2693611435820435,4.800000000000001,12.15,4.75,8.05,6.550000000000001,6.9,4.05,5.15,5,
1.8303005217723127,4.224926034855522,1.7175564037317668,1.746424919657298,3.2171415884290826,2.29128784747792,2.0124611797498106,2.449489742783178,3.35,17.85,2.95,3.0500000000000003,10.350000000000001,5.25,4.05,6.0,5,
1.6583123951777,3.7416573867739413,1.7748239349298849,2.179449471770337,2.9916550603303182,2.949576240750525,2.1908902300206643,2.479919353527449,2.75,14.0,3.1500000000000004,4.75,8.950000000000001,8.700000000000001,4.800000000000001,6.15,5,
2.04939015319192,3.0495901363953815,1.8708286933869707,2.202271554554524,2.6645825188948455,1.61245154965971,2.4698178070456938,3.3166247903554,4.2,9.3,3.5,4.8500000000000005,7.1000000000000005,2.6,6.1000000000000005,11.0,5,
1.8027756377319946,3.626292872893749,2.0976176963403033,1.91049731745428,1.8708286933869707,1.7748239349298849,2.0371548787463363,2.202271554554524,3.25,13.15,4.4,3.6500000000000004,3.5,3.1500000000000004,4.15,4.8500000000000005,5,
1.3038404810405297,2.8548204847240397,2.355843797877949,2.449489742783178,2.0,2.539685019840059,1.9748417658131499,2.80178514522438,1.7000000000000002,8.15,5.550000000000001,6.0,4.0,6.45,3.9000000000000004,7.8500000000000005,5,
1.8708286933869707,3.2939338184001206,2.6172504656604803,1.9748417658131499,3.0659419433511785,2.280350850198276,2.280350850198276,1.760681686165901,3.5,10.850000000000001,6.8500000000000005,3.9000000000000004,9.4,5.2,5.2,3.1,5,
1.5968719422671311,3.8275318418009276,2.224859546128699,2.0976176963403033,3.1304951684997055,2.23606797749979,1.91049731745428,2.224859546128699,2.5500000000000003,14.65,4.95,4.4,9.8,5.0,3.6500000000000004,4.95,5,
1.8841443681416772,3.0166206257996713,2.4186773244895647,2.7477263328068173,3.1622776601683795,1.5968719422671311,2.0248456731316584,2.4596747752497685,3.5500000000000003,9.1,5.8500000000000005,7.550000000000001,10.0,2.5500000000000003,4.1000000000000005,6.050000000000001,5,
1.9748417658131499,3.278719262151,2.0,2.6645825188948455,3.122498999199199,2.5495097567963922,2.355843797877949,2.1908902300206643,3.9000000000000004,10.75,4.0,7.1000000000000005,9.75,6.5,5.550000000000001,4.800000000000001,5,
2.1447610589527217,2.8106938645110393,1.760681686165901,2.3130067012440754,2.8284271247461903,2.0124611797498106,1.746424919657298,2.1330729007701543,4.6000000000000005,7.9,3.1,5.3500000000000005,8.0,4.05,3.0500000000000003,4.55,5,
1.8708286933869707,3.146426544510455,1.6733200530681511,2.179449471770337,2.9154759474226504,2.3021728866442674,1.5491933384829668,1.8027756377319946,3.5,9.9,2.8000000000000003,4.75,8.5,5.300000000000001,2.4000000000000004,3.25,5,
2.085665361461421,3.024896692450835,2.0,2.32379000772445,3.0413812651491097,1.7175564037317668,2.4899799195977463,1.5811388300841898,4.3500000000000005,9.15,4.0,5.4,9.25,2.95,6.2,2.5,5,
1.8027756377319946,2.6076809620810595,2.4392621835300936,2.0976176963403033,2.9068883707497264,1.8303005217723127,2.179449471770337,2.80178514522438,3.25,6.800000000000001,5.95,4.4,8.450000000000001,3.35,4.75,7.8500000000000005,5,
1.9874606914351791,4.0,2.4083189157584592,2.29128784747792,2.5099800796022267,1.9235384061671346,2.29128784747792,2.1447610589527217,3.95,16.0,5.800000000000001,5.25,6.300000000000001,3.7,5.25,4.6000000000000005,5,
1.8708286933869707,2.5298221281347035,2.2693611435820435,2.0,3.361547262794322,1.5652475842498528,1.6431676725154984,2.588435821108957,3.5,6.4,5.15,4.0,11.3,2.45,2.7,6.7,5,
1.9621416870348585,3.4351128074635335,2.1563858652847827,2.7202941017470885,2.280350850198276,1.5,1.8841443681416772,2.4698178070456938,3.85,11.8,4.65,7.4,5.2,2.25,3.5500000000000003,6.1000000000000005,5,
1.51657508881031,2.9916550603303182,1.9748417658131499,2.073644135332772,2.179449471770337,1.8439088914585775,1.857417562100671,2.6457513110645907,2.3000000000000003,8.950000000000001,3.9000000000000004,4.3,4.75,3.4000000000000004,3.45,7.0,5,
2.3874672772626644,2.569046515733026,2.085665361461421,1.51657508881031,2.23606797749979,2.224859546128699,2.23606797749979,2.0248456731316584,5.7,6.6000000000000005,4.3500000000000005,2.3000000000000003,5.0,4.95,5.0,4.1000000000000005,5,
2.3345235059857505,3.82099463490856,2.16794833886788,2.23606797749979,3.248076353782343,2.479919353527449,1.9235384061671346,2.4186773244895647,5.45,14.600000000000001,4.7,5.0,10.55,6.15,3.7,5.8500000000000005,5,
1.816590212458495,3.0495901363953815,2.569046515733026,2.258317958127243,2.5592967784139455,2.29128784747792,1.9364916731037085,2.355843797877949,3.3000000000000003,9.3,6.6000000000000005,5.1000000000000005,6.550000000000001,5.25,3.75,5.550000000000001,5,
1.9621416870348585,2.8722813232690143,1.91049731745428,2.3769728648009427,2.7658633371878665,2.5099800796022267,1.70293863659264,2.23606797749979,3.85,8.25,3.6500000000000004,5.65,7.65,6.300000000000001,2.9000000000000004,5.0,5,
1.5329709716755893,2.9748949561287032,2.3345235059857505,2.179449471770337,2.80178514522438,2.3664319132398464,1.8841443681416772,2.4392621835300936,2.35,8.85,5.45,4.75,7.8500000000000005,5.6000000000000005,3.5500000000000003,5.95,5,
1.3416407864998738,2.819574435974337,2.4289915602982237,2.4083189157584592,2.8809720581775866,2.4899799195977463,1.9621416870348585,2.6267851073127395,1.8,7.95,5.9,5.800000000000001,8.3,6.2,3.85,6.9,5,
2.7386127875258306,2.32379000772445,1.816590212458495,2.0248456731316584,2.8284271247461903,2.6076809620810595,1.6881943016134133,2.6076809620810595,7.5,5.4,3.3000000000000003,4.1000000000000005,8.0,6.800000000000001,2.85,6.800000000000001,5,
1.9364916731037085,3.271085446759225,2.224859546128699,2.0976176963403033,2.3769728648009427,2.258317958127243,2.179449471770337,2.5,3.75,10.700000000000001,4.95,4.4,5.65,5.1000000000000005,4.75,6.25,5,
1.284523257866513,2.9748949561287032,2.3874672772626644,2.2135943621178655,2.6172504656604803,1.9874606914351791,2.085665361461421,2.1447610589527217,1.6500000000000001,8.85,5.7,4.9,6.8500000000000005,3.95,4.3500000000000005,4.6000000000000005,5,
1.746424919657298,2.5199206336708304,2.5495097567963922,1.746424919657298,1.9364916731037085,1.8027756377319946,2.23606797749979,2.7202941017470885,3.0500000000000003,6.3500000000000005,6.5,3.0500000000000003,3.75,3.25,5.0,7.4,5,
1.70293863659264,2.6457513110645907,1.816590212458495,2.3874672772626644,2.5,2.258317958127243,2.3769728648009427,3.0,2.9000000000000004,7.0,3.3000000000000003,5.7,6.25,5.1000000000000005,5.65,9.0,5,
1.3601470508735443,3.1543620591175006,1.4832396974191326,2.1213203435596424,1.91049731745428,2.3664319132398464,2.539685019840059,2.4899799195977463,1.85,9.950000000000001,2.2,4.5,3.6500000000000004,5.6000000000000005,6.45,6.2,5,
1.746424919657298,2.7477263328068173,1.91049731745428,1.8303005217723127,2.5199206336708304,1.51657508881031,2.0976176963403033,2.3345235059857505,3.0500000000000003,7.550000000000001,3.6500000000000004,3.35,6.3500000000000005,2.3000000000000003,4.4,5.45,5,
1.4832396974191326,2.5495097567963922,2.2135943621178655,2.345207879911715,2.6457513110645907,2.4083189157584592,1.8841443681416772,2.0248456731316584,2.2,6.5,4.9,5.5,7.0,5.800000000000001,3.5500000000000003,4.1000000000000005,5,
1.5,3.3466401061363023,1.760681686165901,2.085665361461421,2.479919353527449,2.449489742783178,1.378404875209022,2.1213203435596424,2.25,11.200000000000001,3.1,4.3500000000000005,6.15,6.0,1.9000000000000001,4.5,5,
1.6583123951777,2.1095023109728985,2.4289915602982237,1.6431676725154984,2.1330729007701543,2.3130067012440754,2.0,2.7386127875258306,2.75,4.45,5.9,2.7,4.55,5.3500000000000005,4.0,7.5,5,
1.70293863659264,2.8896366553599777,1.8973665961010275,1.9235384061671346,2.5,2.1908902300206643,2.6172504656604803,2.7658633371878665,2.9000000000000004,8.35,3.6,3.7,6.25,4.800000000000001,6.8500000000000005,7.65,5,
2.073644135332772,3.383784863137726,1.91049731745428,2.1563858652847827,2.7386127875258306,2.2135943621178655,1.7175564037317668,1.8973665961010275,4.3,11.450000000000001,3.6500000000000004,4.65,7.5,4.9,2.95,3.6,5,
1.6881943016134133,3.40587727318528,2.0976176963403033,1.9235384061671346,2.569046515733026,1.816590212458495,1.8973665961010275,2.9410882339705484,2.85,11.600000000000001,4.4,3.7,6.6000000000000005,3.3000000000000003,3.6,8.65,5,
2.04939015319192,3.383784863137726,2.1447610589527217,1.5491933384829668,2.7838821814150108,2.4392621835300936,2.4596747752497685,2.9748949561287032,4.2,11.450000000000001,4.6000000000000005,2.4000000000000004,7.75,5.95,6.050000000000001,8.85,5,
1.6881943016134133,3.122498999199199,2.3345235059857505,1.8973665961010275,3.7349698793966195,1.7748239349298849,2.0371548787463363,2.4392621835300936,2.85,9.75,5.45,3.6,13.950000000000001,3.1500000000000004,4.15,5.95,5,
2.073644135332772,3.391164991562634,2.1330729007701543,1.9874606914351791,3.3015148038438356,2.449489742783178,1.760681686165901,2.1908902300206643,4.3,11.5,4.55,3.95,10.9,6.0,3.1,4.800000000000001,5,
1.8841443681416772,3.5071355833500366,2.4083189157584592,2.32379000772445,2.1095023109728985,1.9493588689617927,1.9874606914351791,2.179449471770337,3.5500000000000003,12.3,5.800000000000001,5.4,4.45,3.8000000000000003,3.95,4.75,5,
2.04939015319192,3.24037034920393,2.1447610589527217,2.1330729007701543,3.3391615714128,2.8460498941515415,1.8973665961010275,2.7294688127912363,4.2,10.5,4.6000000000000005,4.55,11.15,8.1,3.6,7.45,5,
1.9621416870348585,3.3166247903554,1.8027756377319946,1.8439088914585775,1.9621416870348585,2.1095023109728985,1.7888543819998317,2.6172504656604803,3.85,11.0,3.25,3.4000000000000004,3.85,4.45,3.2,6.8500000000000005,5,
2.2135943621178655,3.653765181289022,2.1330729007701543,1.9621416870348585,1.9748417658131499,2.4289915602982237,2.202271554554524,2.5495097567963922,4.9,13.350000000000001,4.55,3.85,3.9000000000000004,5.9,4.8500000000000005,6.5,5,
1.5329709716755893,3.40587727318528,1.5811388300841898,2.449489742783178,2.949576240750525,2.179449471770337,2.449489742783178,2.6267851073127395,2.35,11.600000000000001,2.5,6.0,8.700000000000001,4.75,6.0,6.9,5,
2.1563858652847827,3.122498999199199,2.5787593916455256,2.1447610589527217,2.224859546128699,1.9874606914351791,1.7175564037317668,2.598076211353316,4.65,9.75,6.65,4.6000000000000005,4.95,3.95,2.95,6.75,5,
2.04939015319192,2.7748873851023217,1.8973665961010275,2.3874672772626644,2.23606797749979,2.5298221281347035,2.3769728648009427,2.1563858652847827,4.2,7.7,3.6,5.7,5.0,6.4,5.65,4.65,5,
1.8027756377319946,2.9664793948382653,2.819574435974337,1.8303005217723127,3.0740852297878796,2.085665361461421,1.9748417658131499,2.692582403567252,3.25,8.8,7.95,3.35,9.450000000000001,4.3500000000000005,3.9000000000000004,7.25,5,
2.4289915602982237,2.5199206336708304,2.6362852652928135,2.5,3.6124783736376886,2.701851217221259,1.70293863659264,2.9068883707497264,5.9,6.3500000000000005,6.95,6.25,13.05,7.300000000000001,2.9000000000000004,8.450000000000001,5,
2.2135943621178655,2.7477263328068173,1.9493588689617927,2.0615528128088303,1.760681686165901,2.1330729007701543,2.0615528128088303,2.479919353527449,4.9,7.550000000000001,3.8000000000000003,4.25,3.1,4.55,4.25,6.15,5,
1.6431676725154984,3.331666249791536,2.0,1.2449899597988732,2.9664793948382653,2.479919353527449,1.760681686165901,2.224859546128699,2.7,11.100000000000001,4.0,1.55,8.8,6.15,3.1,4.95,5,
1.9364916731037085,3.1543620591175006,2.1447610589527217,2.3345235059857505,2.8106938645110393,2.23606797749979,2.1095023109728985,2.1908902300206643,3.75,9.950000000000001,4.6000000000000005,5.45,7.9,5.0,4.45,4.800000000000001,5,
1.746424919657298,2.479919353527449,2.0976176963403033,2.355843797877949,3.263433774416144,1.9748417658131499,2.224859546128699,2.569046515733026,3.0500000000000003,6.15,4.4,5.550000000000001,10.65,3.9000000000000004,4.95,6.6000000000000005,5,
1.5491933384829668,3.5355339059327378,1.9493588689617927,1.8841443681416772,2.258317958127243,2.179449471770337,2.1908902300206643,1.9621416870348585,2.4000000000000004,12.5,3.8000000000000003,3.5500000000000003,5.1000000000000005,4.75,4.800000000000001,3.85,5,
2.258317958127243,3.0083217912982647,1.9235384061671346,2.280350850198276,3.1780497164141406,2.247220505424423,1.5491933384829668,2.3769728648009427,5.1000000000000005,9.05,3.7,5.2,10.100000000000001,5.050000000000001,2.4000000000000004,5.65,5,
1.6278820596099706,2.4083189157584592,1.9235384061671346,1.5329709716755893,3.4713109915419564,2.179449471770337,2.345207879911715,2.3130067012440754,2.6500000000000004,5.800000000000001,3.7,2.35,12.05,4.75,5.5,5.3500000000000005,5,
1.857417562100671,3.52845575287547,2.224859546128699,1.6733200530681511,3.1543620591175006,2.5592967784139455,2.0976176963403033,2.692582403567252,3.45,12.450000000000001,4.95,2.8000000000000003,9.950000000000001,6.550000000000001,4.4,7.25,5,
1.5329709716755893,3.5355339059327378,1.9235384061671346,2.3345235059857505,2.949576240750525,2.1095023109728985,1.378404875209022,2.4899799195977463,2.35,12.5,3.7,5.45,8.700000000000001,4.45,1.9000000000000001,6.2,5,
1.8973665961010275,3.0083217912982647,2.2693611435820435,1.9748417658131499,2.569046515733026,2.0,1.8303005217723127,2.32379000772445,3.6,9.05,5.15,3.9000000000000004,6.6000000000000005,4.0,3.35,5.4,5,
2.073644135332772,2.7658633371878665,1.6881943016134133,2.479919353527449,2.539685019840059,2.1447610589527217,1.5968719422671311,2.479919353527449,4.3,7.65,2.85,6.15,6.45,4.6000000000000005,2.5500000000000003,6.15,5,
1.6881943016134133,3.5425979167836705,2.280350850198276,2.29128784747792,2.9410882339705484,2.3664319132398464,2.2135943621178655,2.539685019840059,2.85,12.55,5.2,5.25,8.65,5.6000000000000005,4.9,6.45,5,
1.9874606914351791,3.492849839314596,2.5495097567963922,2.569046515733026,3.4856850115866753,1.6733200530681511,2.4083189157584592,2.569046515733026,3.95,12.200000000000001,6.5,6.6000000000000005,12.15,2.8000000000000003,5.800000000000001,6.6000000000000005,5,
2.1447610589527217,3.6674241641784495,1.70293863659264,2.1563858652847827,2.6267851073127395,2.6645825188948455,1.6583123951777,2.3130067012440754,4.6000000000000005,13.450000000000001,2.9000000000000004,4.65,6.9,7.1000000000000005,2.75,5.3500000000000005,5,
1.396424004376894,3.3015148038438356,2.3130067012440754,2.179449471770337,2.29128784747792,1.8841443681416772,1.6583123951777,1.7888543819998317,1.9500000000000002,10.9,5.3500000000000005,4.75,5.25,3.5500000000000003,2.75,3.2,5,
1.9874606914351791,3.0903074280724887,1.6733200530681511,2.0615528128088303,2.949576240750525,2.23606797749979,2.179449471770337,3.0903074280724887,3.95,9.55,2.8000000000000003,4.25,8.700000000000001,5.0,4.75,9.55,5,
2.0615528128088303,3.3015148038438356,1.7888543819998317,1.70293863659264,2.5495097567963922,1.9748417658131499,1.5652475842498528,3.0413812651491097,4.25,10.9,3.2,2.9000000000000004,6.5,3.9000000000000004,2.45,9.25,5,
1.8708286933869707,3.4641016151377544,2.1213203435596424,1.9874606914351791,1.5,2.1213203435596424,1.7748239349298849,2.6172504656604803,3.5,12.0,4.5,3.95,2.25,4.5,3.1500000000000004,6.8500000000000005,5,
1.4317821063276353,3.03315017762062,1.9364916731037085,2.247220505424423,2.5495097567963922,2.280350850198276,1.5968719422671311,2.5,2.0500000000000003,9.200000000000001,3.75,5.050000000000001,6.5,5.2,2.5500000000000003,6.25,5,
2.0615528128088303,2.792848008753788,1.9493588689617927,2.2135943621178655,2.0976176963403033,1.7748239349298849,1.9235384061671346,2.5099800796022267,4.25,7.800000000000001,3.8000000000000003,4.9,4.4,3.1500000000000004,3.7,6.300000000000001,5,
2.3345235059857505,2.958039891549808,2.04939015319192,1.8973665961010275,2.6362852652928135,1.5,2.0371548787463363,2.29128784747792,5.45,8.75,4.2,3.6,6.95,2.25,4.15,5.25,5,
1.3038404810405297,3.082207001484488,1.8303005217723127,2.5,2.7748873851023217,2.449489742783178,1.6881943016134133,2.345207879911715,1.7000000000000002,9.5,3.35,6.25,7.7,6.0,2.85,5.5,5,
1.7888543819998317,3.1859064644147983,1.6881943016134133,1.4317821063276353,2.1213203435596424,1.5968719422671311,2.3130067012440754,2.8460498941515415,3.2,10.15,2.85,2.0500000000000003,4.5,2.5500000000000003,5.3500000000000005,8.1,5,
1.6278820596099706,2.345207879911715,2.085665361461421,1.8439088914585775,2.345207879911715,1.8973665961010275,1.449137674618944,2.701851217221259,2.6500000000000004,5.5,4.3500000000000005,3.4000000000000004,5.5,3.6,2.1,7.300000000000001,5,
1.5968719422671311,3.0,2.4596747752497685,2.1563858652847827,2.04939015319192,2.3021728866442674,2.29128784747792,2.3769728648009427,2.5500000000000003,9.0,6.050000000000001,4.65,4.2,5.300000000000001,5.25,5.65,5,
1.9621416870348585,3.5846896657869842,1.91049731745428,2.7748873851023217,2.7294688127912363,2.4392621835300936,1.6583123951777,1.9748417658131499,3.85,12.850000000000001,3.6500000000000004,7.7,7.45,5.95,2.75,3.9000000000000004,5,
1.7888543819998317,2.569046515733026,2.1095023109728985,1.7320508075688772,2.8106938645110393,2.0124611797498106,2.3021728866442674,2.711088342345192,3.2,6.6000000000000005,4.45,3.0,7.9,4.05,5.300000000000001,7.3500000000000005,5,
1.8303005217723127,2.6645825188948455,2.3021728866442674,1.7888543819998317,2.9664793948382653,2.4186773244895647,1.9364916731037085,1.9493588689617927,3.35,7.1000000000000005,5.300000000000001,3.2,8.8,5.8500000000000005,3.75,3.8000000000000003,5,
1.91049731745428,3.40587727318528,1.9621416870348585,1.9748417658131499,2.8809720581775866,2.1213203435596424,2.04939015319192,2.5099800796022267,3.6500000000000004,11.600000000000001,3.85,3.9000000000000004,8.3,4.5,4.2,6.300000000000001,5,
1.5811388300841898,2.6739483914241875,1.9621416870348585,2.16794833886788,3.0740852297878796,1.5491933384829668,2.2693611435820435,1.7748239349298849,2.5,7.15,3.85,4.7,9.450000000000001,2.4000000000000004,5.15,3.1500000000000004,5,
2.345207879911715,3.248076353782343,2.29128784747792,2.1213203435596424,3.1859064644147983,2.0,2.449489742783178,2.756809750418044,5.5,10.55,5.25,4.5,10.15,4.0,6.0,7.6000000000000005,5,
2.0371548787463363,3.0495901363953815,1.9235384061671346,1.7748239349298849,3.4856850115866753,1.7175564037317668,2.3874672772626644,2.588435821108957,4.15,9.3,3.7,3.1500000000000004,12.15,2.95,5.7,6.7,5,
1.8439088914585775,3.7282703764614498,2.3021728866442674,2.5199206336708304,2.8548204847240397,3.0983866769659336,2.1330729007701543,2.3979157616563596,3.4000000000000004,13.9,5.300000000000001,6.3500000000000005,8.15,9.600000000000001,4.55,5.75,5,
1.7175564037317668,4.092676385936225,2.3769728648009427,2.4698178070456938,2.9154759474226504,1.8708286933869707,2.5099800796022267,2.9154759474226504,2.95,16.75,5.65,6.1000000000000005,8.5,3.5,6.300000000000001,8.5,5,
1.6278820596099706,3.0166206257996713,2.6645825188948455,2.8106938645110393,3.521363372331802,2.5787593916455256,1.91049731745428,2.0976176963403033,2.6500000000000004,9.1,7.1000000000000005,7.9,12.4,6.65,3.6500000000000004,4.4,5,
1.6431676725154984,2.9916550603303182,1.466287829861518,2.0976176963403033,2.701851217221259,2.355843797877949,1.5329709716755893,2.7202941017470885,2.7,8.950000000000001,2.15,4.4,7.300000000000001,5.550000000000001,2.35,7.4,5,
1.5811388300841898,3.5142566781611158,2.692582403567252,1.7175564037317668,3.3466401061363023,2.5592967784139455,2.4186773244895647,2.539685019840059,2.5,12.350000000000001,7.25,2.95,11.200000000000001,6.550000000000001,5.8500000000000005,6.45,5,
1.857417562100671,2.7658633371878665,2.23606797749979,2.2135943621178655,2.3874672772626644,2.3021728866442674,1.9493588689617927,2.819574435974337,3.45,7.65,5.0,4.9,5.7,5.300000000000001,3.8000000000000003,7.95,5,
1.9748417658131499,2.924038303442689,1.9748417658131499,1.8439088914585775,2.4392621835300936,2.2693611435820435,2.179449471770337,2.1447610589527217,3.9000000000000004,8.55,3.9000000000000004,3.4000000000000004,5.95,5.15,4.75,4.6000000000000005,5,
2.0615528128088303,3.0,1.9621416870348585,1.857417562100671,2.4392621835300936,2.2135943621178655,2.258317958127243,2.04939015319192,4.25,9.0,3.85,3.45,5.95,4.9,5.1000000000000005,4.2,5,
1.8708286933869707,3.0659419433511785,1.9621416870348585,2.280350850198276,2.2693611435820435,1.8841443681416772,2.247220505424423,2.6172504656604803,3.5,9.4,3.85,5.2,5.15,3.5500000000000003,5.050000000000001,6.8500000000000005,5,
1.9748417658131499,2.6832815729997477,1.857417562100671,2.5199206336708304,2.7202941017470885,1.8027756377319946,1.6431676725154984,2.3345235059857505,3.9000000000000004,7.2,3.45,6.3500000000000005,7.4,3.25,2.7,5.45,5,
1.9493588689617927,3.0166206257996713,1.9748417658131499,1.9748417658131499,2.1447610589527217,1.9874606914351791,1.9748417658131499,2.4698178070456938,3.8000000000000003,9.1,3.9000000000000004,3.9000000000000004,4.6000000000000005,3.95,3.9000000000000004,6.1000000000000005,5,
1.61245154965971,3.1622776601683795,1.8973665961010275,2.355843797877949,2.3021728866442674,2.0124611797498106,1.746424919657298,1.9235384061671346,2.6,10.0,3.6,5.550000000000001,5.300000000000001,4.05,3.0500000000000003,3.7,5,
1.7175564037317668,2.7386127875258306,1.8439088914585775,1.7888543819998317,2.898275349237888,1.8027756377319946,2.449489742783178,2.280350850198276,2.95,7.5,3.4000000000000004,3.2,8.4,3.25,6.0,5.2,5,
1.9874606914351791,3.0083217912982647,1.8708286933869707,2.5495097567963922,2.224859546128699,2.756809750418044,2.3979157616563596,3.24037034920393,3.95,9.05,3.5,6.5,4.95,7.6000000000000005,5.75,10.5,5,
2.073644135332772,3.3241540277189325,1.9748417658131499,2.3979157616563596,3.024896692450835,2.9410882339705484,2.179449471770337,2.179449471770337,4.3,11.05,3.9000000000000004,5.75,9.15,8.65,4.75,4.75,5,
1.8439088914585775,3.0740852297878796,2.247220505424423,1.9364916731037085,3.0903074280724887,1.7748239349298849,1.70293863659264,2.7477263328068173,3.4000000000000004,9.450000000000001,5.050000000000001,3.75,9.55,3.1500000000000004,2.9000000000000004,7.550000000000001,5,
1.8708286933869707,3.24037034920393,2.819574435974337,2.6551836094703507,2.924038303442689,3.1937438845342623,2.8106938645110393,2.04939015319192,3.5,10.5,7.95,7.050000000000001,8.55,10.200000000000001,7.9,4.2,5,
1.8841443681416772,3.5355339059327378,1.8973665961010275,2.3664319132398464,2.8460498941515415,2.4186773244895647,2.29128784747792,2.355843797877949,3.5500000000000003,12.5,3.6,5.6000000000000005,8.1,5.8500000000000005,5.25,5.550000000000001,5,
1.746424919657298,3.122498999199199,2.0248456731316584,2.29128784747792,2.8722813232690143,3.1064449134018135,2.6362852652928135,2.6267851073127395,3.0500000000000003,9.75,4.1000000000000005,5.25,8.25,9.65,6.95,6.9,5,
1.5968719422671311,3.271085446759225,2.5592967784139455,3.0659419433511785,4.39317652729776,3.248076353782343,1.3416407864998738,2.8722813232690143,2.5500000000000003,10.700000000000001,6.550000000000001,9.4,19.3,10.55,1.8,8.25,5,
2.179449471770337,4.135214625627067,2.539685019840059,3.3541019662496847,3.847076812334269,1.7175564037317668,1.9621416870348585,2.949576240750525,4.75,17.1,6.45,11.25,14.8,2.95,3.85,8.700000000000001,5,
1.4142135623730951,3.170173496829472,2.6739483914241875,2.8809720581775866,3.5425979167836705,3.492849839314596,3.361547262794322,2.924038303442689,2.0,10.05,7.15,8.3,12.55,12.200000000000001,11.3,8.55,5,
2.0371548787463363,3.442382895611701,2.6076809620810595,2.8372521918222215,3.5071355833500366,2.479919353527449,2.073644135332772,2.345207879911715,4.15,11.850000000000001,6.800000000000001,8.05,12.3,6.15,4.3,5.5,5,
2.2135943621178655,3.0083217912982647,2.179449471770337,3.3689761055846033,3.7349698793966195,2.8722813232690143,3.248076353782343,3.1937438845342623,4.9,9.05,4.75,11.350000000000001,13.950000000000001,8.25,10.55,10.200000000000001,5,
1.8708286933869707,2.8460498941515415,2.8284271247461903,2.2693611435820435,4.177319714841085,2.8372521918222215,1.9493588689617927,1.6431676725154984,3.5,8.1,8.0,5.15,17.45,8.05,3.8000000000000003,2.7,5,
1.857417562100671,2.5495097567963922,2.5,2.3979157616563596,4.483302354291979,2.9410882339705484,1.816590212458495,2.692582403567252,3.45,6.5,6.25,5.75,20.1,8.65,3.3000000000000003,7.25,5,
1.5652475842498528,3.138470965295043,2.8460498941515415,2.8548204847240397,4.883646178829912,3.0413812651491097,1.857417562100671,2.4899799195977463,2.45,9.850000000000001,8.1,8.15,23.85,9.25,3.45,6.2,5,
2.0124611797498106,2.949576240750525,2.8372521918222215,2.9832867780352594,3.4641016151377544,3.420526275297414,2.4083189157584592,3.4641016151377544,4.05,8.700000000000001,8.05,8.9,12.0,11.700000000000001,5.800000000000001,12.0,5,
2.0124611797498106,2.949576240750525,3.2939338184001206,3.5142566781611158,4.09878030638384,3.0166206257996713,2.5099800796022267,2.3345235059857505,4.05,8.700000000000001,10.850000000000001,12.350000000000001,16.8,9.1,6.300000000000001,5.45,5,
1.8303005217723127,2.8809720581775866,2.202271554554524,2.202271554554524,4.511097427455985,3.9812058474788765,3.1859064644147983,2.5099800796022267,3.35,8.3,4.8500000000000005,4.8500000000000005,20.35,15.850000000000001,10.15,6.300000000000001,5,
1.5968719422671311,2.7202941017470885,2.3130067012440754,2.5787593916455256,2.4186773244895647,3.52845575287547,2.569046515733026,2.692582403567252,2.5500000000000003,7.4,5.3500000000000005,6.65,5.8500000000000005,12.450000000000001,6.6000000000000005,7.25,5,
1.8841443681416772,2.9664793948382653,2.4186773244895647,3.3391615714128,3.653765181289022,2.8284271247461903,2.7294688127912363,2.179449471770337,3.5500000000000003,8.8,5.8500000000000005,11.15,13.350000000000001,8.0,7.45,4.75,5,
1.2041594578792296,2.7386127875258306,2.539685019840059,4.159326868617084,3.278719262151,2.792848008753788,2.1563858652847827,2.3021728866442674,1.4500000000000002,7.5,6.45,17.3,10.75,7.800000000000001,4.65,5.300000000000001,5,
2.247220505424423,2.4186773244895647,2.3979157616563596,1.9874606914351791,4.58257569495584,3.383784863137726,2.479919353527449,2.4596747752497685,5.050000000000001,5.8500000000000005,5.75,3.95,21.0,11.450000000000001,6.15,6.050000000000001,5,
2.1330729007701543,2.8722813232690143,1.8027756377319946,3.640054944640259,4.05585995813465,4.58257569495584,2.0976176963403033,2.692582403567252,4.55,8.25,3.25,13.25,16.45,21.0,4.4,7.25,5,
2.247220505424423,3.3541019662496847,2.4186773244895647,2.5495097567963922,3.924283374069717,3.7282703764614498,3.1064449134018135,2.0124611797498106,5.050000000000001,11.25,5.8500000000000005,6.5,15.4,13.9,9.65,4.05,5,
1.5652475842498528,3.057776970284131,1.9364916731037085,2.355843797877949,2.692582403567252,3.3166247903554,3.057776970284131,2.4899799195977463,2.45,9.35,3.75,5.550000000000001,7.25,11.0,9.35,6.2,5,
1.816590212458495,3.024896692450835,2.29128784747792,3.0659419433511785,3.1304951684997055,3.0983866769659336,1.70293863659264,3.3391615714128,3.3000000000000003,9.15,5.25,9.4,9.8,9.600000000000001,2.9000000000000004,11.15,5,
1.816590212458495,3.03315017762062,2.0124611797498106,2.0976176963403033,4.984977432245807,3.331666249791536,2.7202941017470885,2.1563858652847827,3.3000000000000003,9.200000000000001,4.05,4.4,24.85,11.100000000000001,7.4,4.65,5,
2.598076211353316,3.7815340802378077,2.345207879911715,2.9410882339705484,3.278719262151,3.3090784215548594,2.6267851073127395,2.8896366553599777,6.75,14.3,5.5,8.65,10.75,10.950000000000001,6.9,8.35,5,
2.5298221281347035,3.3466401061363023,2.5199206336708304,3.383784863137726,3.9937451095431715,3.383784863137726,2.6739483914241875,2.6645825188948455,6.4,11.200000000000001,6.3500000000000005,11.450000000000001,15.950000000000001,11.450000000000001,7.15,7.1000000000000005,5,
1.7175564037317668,2.7477263328068173,2.569046515733026,2.7386127875258306,4.242640687119285,3.361547262794322,2.9154759474226504,2.16794833886788,2.95,7.550000000000001,6.6000000000000005,7.5,18.0,11.3,8.5,4.7,5,
2.3664319132398464,3.1859064644147983,2.6267851073127395,3.024896692450835,4.444097208657794,3.1780497164141406,2.3769728648009427,1.91049731745428,5.6000000000000005,10.15,6.9,9.15,19.75,10.100000000000001,5.65,3.6500000000000004,5,
1.6583123951777,2.8548204847240397,2.355843797877949,3.3466401061363023,6.180614856144977,4.242640687119285,2.3769728648009427,2.4596747752497685,2.75,8.15,5.550000000000001,11.200000000000001,38.2,18.0,5.65,6.050000000000001,5,
1.9621416870348585,2.598076211353316,2.5,3.7815340802378077,5.291502622129181,4.533210782657255,2.958039891549808,2.924038303442689,3.85,6.75,6.25,14.3,28.0,20.55,8.75,8.55,5,
2.202271554554524,2.7294688127912363,2.5298221281347035,3.6742346141747673,4.806245936279167,4.732863826479693,2.6551836094703507,2.449489742783178,4.8500000000000005,7.45,6.4,13.5,23.1,22.400000000000002,7.050000000000001,6.0,5,
2.1908902300206643,2.6739483914241875,3.521363372331802,5.616938667993447,7.345066371381542,4.533210782657255,3.146426544510455,1.9235384061671346,4.800000000000001,7.15,12.4,31.55,53.95,20.55,9.9,3.7,5,
2.202271554554524,3.1937438845342623,2.280350850198276,5.049752469181039,7.566372975210778,6.58027355054484,3.8794329482541645,3.146426544510455,4.8500000000000005,10.200000000000001,5.2,25.5,57.25,43.300000000000004,15.05,9.9,5,
2.3130067012440754,2.8809720581775866,2.3664319132398464,3.8535697735995385,5.224940191045253,4.5661800227323495,3.0083217912982647,2.5298221281347035,5.3500000000000005,8.3,5.6000000000000005,14.850000000000001,27.3,20.85,9.05,6.4,5,
1.4317821063276353,3.3689761055846033,1.760681686165901,3.331666249791536,4.031128874149275,4.716990566028302,2.9154759474226504,3.3241540277189325,2.0500000000000003,11.350000000000001,3.1,11.100000000000001,16.25,22.25,8.5,11.05,5,
2.1908902300206643,3.278719262151,3.0413812651491097,4.909175083453431,7.402702209328699,4.254409477236529,2.7748873851023217,2.4596747752497685,4.800000000000001,10.75,9.25,24.1,54.800000000000004,18.1,7.7,6.050000000000001,5,
2.1330729007701543,2.1447610589527217,2.5787593916455256,3.271085446759225,3.2939338184001206,3.0413812651491097,2.16794833886788,2.2693611435820435,4.55,4.6000000000000005,6.65,10.700000000000001,10.850000000000001,9.25,4.7,5.15,5,
1.9364916731037085,3.0166206257996713,2.4289915602982237,2.898275349237888,4.219004621945797,3.6742346141747673,2.792848008753788,2.258317958127243,3.75,9.1,5.9,8.4,17.8,13.5,7.800000000000001,5.1000000000000005,5,
2.3021728866442674,2.6076809620810595,2.4083189157584592,3.0413812651491097,4.324349662087931,4.370354676682432,2.598076211353316,2.9410882339705484,5.300000000000001,6.800000000000001,5.800000000000001,9.25,18.7,19.1,6.75,8.65,5,
2.0,3.456877203488721,2.4899799195977463,2.898275349237888,4.753945729601885,3.138470965295043,2.04939015319192,2.085665361461421,4.0,11.950000000000001,6.2,8.4,22.6,9.850000000000001,4.2,4.3500000000000005,5,
2.202271554554524,3.331666249791536,2.258317958127243,3.2326459750489227,3.4641016151377544,3.892300091205713,2.355843797877949,2.3874672772626644,4.8500000000000005,11.100000000000001,5.1000000000000005,10.450000000000001,12.0,15.15,5.550000000000001,5.7,5,
1.8841443681416772,3.598610843089316,1.816590212458495,3.7013511046643495,4.852834223420372,4.455333881989093,3.3166247903554,2.5592967784139455,3.5500000000000003,12.950000000000001,3.3000000000000003,13.700000000000001,23.55,19.85,11.0,6.550000000000001,5,
1.9874606914351791,3.0903074280724887,2.3769728648009427,3.1144823004794873,4.266145801540309,3.271085446759225,2.5099800796022267,3.1144823004794873,3.95,9.55,5.65,9.700000000000001,18.2,10.700000000000001,6.300000000000001,9.700000000000001,5,
1.7175564037317668,3.361547262794322,2.9068883707497264,4.642197755374064,4.207136793592526,2.8896366553599777,2.4596747752497685,3.1144823004794873,2.95,11.3,8.450000000000001,21.55,17.7,8.35,6.050000000000001,9.700000000000001,5,
2.0,3.24037034920393,2.588435821108957,3.391164991562634,3.3763886032268267,3.0166206257996713,1.9874606914351791,1.8439088914585775,4.0,10.5,6.7,11.5,11.4,9.1,3.95,3.4000000000000004,5,
2.16794833886788,2.355843797877949,2.6457513110645907,3.4713109915419564,4.61519230368573,3.7080992435478315,3.3241540277189325,2.1330729007701543,4.7,5.550000000000001,7.0,12.05,21.3,13.75,11.05,4.55,5,
1.8973665961010275,3.146426544510455,2.3769728648009427,2.5099800796022267,3.248076353782343,3.4351128074635335,2.4289915602982237,2.479919353527449,3.6,9.9,5.65,6.300000000000001,10.55,11.8,5.9,6.15,5,
2.2135943621178655,2.792848008753788,2.1095023109728985,3.1144823004794873,4.0743097574926725,3.398529093593286,2.6076809620810595,2.6267851073127395,4.9,7.800000000000001,4.45,9.700000000000001,16.6,11.55,6.800000000000001,6.9,5,
2.0,3.3763886032268267,2.5199206336708304,2.1095023109728985,3.840572873934304,3.9812058474788765,2.5787593916455256,2.4289915602982237,4.0,11.4,6.3500000000000005,4.45,14.75,15.850000000000001,6.65,5.9,5,
1.9621416870348585,2.6739483914241875,2.6172504656604803,3.7616485747608057,3.721558813185679,3.646916505762094,1.9235384061671346,2.6076809620810595,3.85,7.15,6.8500000000000005,14.15,13.850000000000001,13.3,3.7,6.800000000000001,5,
2.0,3.398529093593286,2.0976176963403033,2.7294688127912363,4.080441152620633,3.7549966711037173,2.5787593916455256,1.7175564037317668,4.0,11.55,4.4,7.45,16.650000000000002,14.100000000000001,6.65,2.95,5,
1.6733200530681511,2.8106938645110393,2.7477263328068173,3.1937438845342623,4.301162633521313,3.255764119219941,2.5787593916455256,2.2693611435820435,2.8000000000000003,7.9,7.550000000000001,10.200000000000001,18.5,10.600000000000001,6.65,5.15,5,
1.9493588689617927,2.80178514522438,2.5592967784139455,2.792848008753788,3.3241540277189325,3.478505426185217,2.8460498941515415,2.280350850198276,3.8000000000000003,7.8500000000000005,6.550000000000001,7.800000000000001,11.05,12.100000000000001,8.1,5.2,5,
1.396424004376894,2.80178514522438,2.5592967784139455,3.8535697735995385,3.2171415884290826,2.280350850198276,2.224859546128699,2.073644135332772,1.9500000000000002,7.8500000000000005,6.550000000000001,14.850000000000001,10.350000000000001,5.2,4.95,4.3,5,
1.8439088914585775,2.539685019840059,1.8973665961010275,2.949576240750525,4.141255848169731,3.9560080889704965,3.0903074280724887,2.598076211353316,3.4000000000000004,6.45,3.6,8.700000000000001,17.150000000000002,15.65,9.55,6.75,5,
1.816590212458495,2.80178514522438,2.3979157616563596,3.4713109915419564,4.39317652729776,3.714835124201342,2.8460498941515415,1.9493588689617927,3.3000000000000003,7.8500000000000005,5.75,12.05,19.3,13.8,8.1,3.8000000000000003,5,
1.9874606914351791,2.1447610589527217,2.2693611435820435,2.819574435974337,3.9560080889704965,3.7549966711037173,2.247220505424423,2.539685019840059,3.95,4.6000000000000005,5.15,7.95,15.65,14.100000000000001,5.050000000000001,6.45,5,
2.16794833886788,2.4289915602982237,2.23606797749979,2.258317958127243,4.759201613716317,4.759201613716317,2.9916550603303182,3.2015621187164243,4.7,5.9,5.0,5.1000000000000005,22.650000000000002,22.650000000000002,8.950000000000001,10.25,5,
2.085665361461421,2.792848008753788,2.4186773244895647,3.3763886032268267,4.631414470763764,3.5425979167836705,2.6739483914241875,2.1330729007701543,4.3500000000000005,7.800000000000001,5.8500000000000005,11.4,21.450000000000003,12.55,7.15,4.55,5,
1.6278820596099706,2.355843797877949,2.5099800796022267,1.816590212458495,4.695742752749559,3.271085446759225,3.0083217912982647,2.3130067012440754,2.6500000000000004,5.550000000000001,6.300000000000001,3.3000000000000003,22.05,10.700000000000001,9.05,5.3500000000000005,5,
1.9493588689617927,2.5592967784139455,2.247220505424423,3.8275318418009276,3.7349698793966195,4.732863826479693,2.701851217221259,3.0413812651491097,3.8000000000000003,6.550000000000001,5.050000000000001,14.65,13.950000000000001,22.400000000000002,7.300000000000001,9.25,5,
1.746424919657298,3.248076353782343,2.819574435974337,3.0740852297878796,4.306971093471606,3.449637662132068,2.16794833886788,3.2171415884290826,3.0500000000000003,10.55,7.95,9.450000000000001,18.55,11.9,4.7,10.350000000000001,5,
2.280350850198276,3.3689761055846033,2.3021728866442674,2.5787593916455256,3.5846896657869842,2.224859546128699,2.1330729007701543,2.6551836094703507,5.2,11.350000000000001,5.300000000000001,6.65,12.850000000000001,4.95,4.55,7.050000000000001,5,
1.9621416870348585,3.0983866769659336,2.1908902300206643,3.8078865529319543,3.9749213828703582,3.4713109915419564,2.588435821108957,1.857417562100671,3.85,9.600000000000001,4.800000000000001,14.5,15.8,12.05,6.7,3.45,5,
2.1447610589527217,3.122498999199199,1.9235384061671346,3.0083217912982647,3.391164991562634,2.8635642126552705,2.4083189157584592,1.9621416870348585,4.6000000000000005,9.75,3.7,9.05,11.5,8.200000000000001,5.800000000000001,3.85,5,
1.6583123951777,2.8548204847240397,2.202271554554524,3.8535697735995385,3.024896692450835,2.9748949561287032,1.9235384061671346,2.756809750418044,2.75,8.15,4.8500000000000005,14.850000000000001,9.15,8.85,3.7,7.6000000000000005,5,
1.857417562100671,2.7748873851023217,1.4832396974191326,2.6739483914241875,3.943348830626071,3.8144462245521304,2.6645825188948455,2.449489742783178,3.45,7.7,2.2,7.15,15.55,14.55,7.1000000000000005,6.0,5,
1.9235384061671346,2.924038303442689,2.569046515733026,2.7477263328068173,3.7416573867739413,3.0,2.1213203435596424,2.792848008753788,3.7,8.55,6.6000000000000005,7.550000000000001,14.0,9.0,4.5,7.800000000000001,5,
1.9748417658131499,3.0659419433511785,2.4596747752497685,3.5071355833500366,4.06201920231798,3.4856850115866753,2.247220505424423,2.1563858652847827,3.9000000000000004,9.4,6.050000000000001,12.3,16.5,12.15,5.050000000000001,4.65,5,
1.7888543819998317,2.5,2.085665361461421,3.263433774416144,4.0743097574926725,4.404543109109048,2.588435821108957,2.4186773244895647,3.2,6.25,4.3500000000000005,10.65,16.6,19.400000000000002,6.7,5.8500000000000005,5,
1.857417562100671,3.2326459750489227,2.5,3.2093613071762426,4.110960958218893,3.4132096331752027,2.8460498941515415,2.16794833886788,3.45,10.450000000000001,6.25,10.3,16.900000000000002,11.65,8.1,4.7,5,
1.8973665961010275,2.701851217221259,2.3130067012440754,2.588435821108957,4.324349662087931,3.5,2.6551836094703507,2.4698178070456938,3.6,7.300000000000001,5.3500000000000005,6.7,18.7,12.25,7.050000000000001,6.1000000000000005,5,
2.1330729007701543,2.4083189157584592,2.202271554554524,2.6362852652928135,3.9115214431215892,3.138470965295043,2.8460498941515415,1.8973665961010275,4.55,5.800000000000001,4.8500000000000005,6.95,15.3,9.850000000000001,8.1,3.6,5,
1.70293863659264,2.5298221281347035,2.3021728866442674,3.255764119219941,3.5425979167836705,3.8078865529319543,2.355843797877949,2.6172504656604803,2.9000000000000004,6.4,5.300000000000001,10.600000000000001,12.55,14.5,5.550000000000001,6.8500000000000005,5,
2.1213203435596424,3.0166206257996713,2.355843797877949,2.345207879911715,2.7386127875258306,2.7477263328068173,1.5811388300841898,2.6267851073127395,4.5,9.1,5.550000000000001,5.5,7.5,7.550000000000001,2.5,6.9,5,
2.1213203435596424,3.278719262151,2.4899799195977463,2.588435821108957,4.2130748865881795,2.932575659723036,2.5199206336708304,2.539685019840059,4.5,10.75,6.2,6.7,17.75,8.6,6.3500000000000005,6.45,5,
1.8303005217723127,3.122498999199199,2.073644135332772,3.0413812651491097,3.8794329482541645,3.1543620591175006,2.280350850198276,2.9916550603303182,3.35,9.75,4.3,9.25,15.05,9.950000000000001,5.2,8.950000000000001,5,
2.1213203435596424,2.6645825188948455,1.8439088914585775,3.63318042491699,3.640054944640259,2.5,2.0124611797498106,2.1330729007701543,4.5,7.1000000000000005,3.4000000000000004,13.200000000000001,13.25,6.25,4.05,4.55,5,
2.247220505424423,2.4899799195977463,1.9874606914351791,3.1064449134018135,3.7349698793966195,3.263433774416144,2.5,1.8439088914585775,5.050000000000001,6.2,3.95,9.65,13.950000000000001,10.65,6.25,3.4000000000000004,5,
2.0,2.8548204847240397,2.6267851073127395,3.3241540277189325,4.577116996538323,2.7386127875258306,1.8973665961010275,2.0371548787463363,4.0,8.15,6.9,11.05,20.950000000000003,7.5,3.6,4.15,5,
1.7888543819998317,2.9068883707497264,2.6076809620810595,2.932575659723036,4.330127018922194,2.5199206336708304,2.4083189157584592,2.3021728866442674,3.2,8.450000000000001,6.800000000000001,8.6,18.75,6.3500000000000005,5.800000000000001,5.300000000000001,5,
2.0124611797498106,2.6076809620810595,2.355843797877949,2.9832867780352594,3.138470965295043,3.0740852297878796,2.3769728648009427,2.4596747752497685,4.05,6.800000000000001,5.550000000000001,8.9,9.850000000000001,9.450000000000001,5.65,6.050000000000001,5,
2.1095023109728985,3.1304951684997055,2.7748873851023217,3.0413812651491097,3.774917217635375,2.4899799195977463,2.29128784747792,2.924038303442689,4.45,9.8,7.7,9.25,14.25,6.2,5.25,8.55,5,
1.6881943016134133,2.711088342345192,2.588435821108957,3.0659419433511785,3.9812058474788765,3.057776970284131,2.598076211353316,3.0659419433511785,2.85,7.3500000000000005,6.7,9.4,15.850000000000001,9.35,6.75,9.4,5,
2.1330729007701543,3.03315017762062,2.5199206336708304,2.9410882339705484,3.63318042491699,3.456877203488721,2.3979157616563596,2.932575659723036,4.55,9.200000000000001,6.3500000000000005,8.65,13.200000000000001,11.950000000000001,5.75,8.6,5,
2.3979157616563596,3.714835124201342,2.3130067012440754,2.6645825188948455,3.383784863137726,2.4698178070456938,2.1213203435596424,2.345207879911715,5.75,13.8,5.3500000000000005,7.1000000000000005,11.450000000000001,6.1000000000000005,4.5,5.5,5,
1.9493588689617927,2.9916550603303182,2.588435821108957,2.569046515733026,4.183300132670378,3.2939338184001206,2.1213203435596424,3.420526275297414,3.8000000000000003,8.950000000000001,6.7,6.6000000000000005,17.5,10.850000000000001,4.5,11.700000000000001,5,
2.4392621835300936,3.383784863137726,2.4392621835300936,2.8635642126552705,4.207136793592526,2.6832815729997477,2.29128784747792,2.8722813232690143,5.95,11.450000000000001,5.95,8.200000000000001,17.7,7.2,5.25,8.25,5,
2.085665361461421,2.5199206336708304,2.1330729007701543,2.9154759474226504,3.3689761055846033,3.082207001484488,2.711088342345192,2.9832867780352594,4.3500000000000005,6.3500000000000005,4.55,8.5,11.350000000000001,9.5,7.3500000000000005,8.9,5,
2.0976176963403033,2.32379000772445,2.345207879911715,3.0495901363953815,3.24037034920393,2.3345235059857505,2.6267851073127395,2.085665361461421,4.4,5.4,5.5,9.3,10.5,5.45,6.9,4.3500000000000005,5,
2.04939015319192,2.8372521918222215,2.1447610589527217,3.605551275463989,3.248076353782343,2.924038303442689,2.9916550603303182,3.0,4.2,8.05,4.6000000000000005,13.0,10.55,8.55,8.950000000000001,9.0,5,
2.04939015319192,2.7477263328068173,2.1563858652847827,2.6362852652928135,3.2326459750489227,3.122498999199199,2.258317958127243,2.9154759474226504,4.2,7.550000000000001,4.65,6.95,10.450000000000001,9.75,5.1000000000000005,8.5,5,
2.588435821108957,2.9154759474226504,2.1213203435596424,1.6733200530681511,4.283689998120779,3.278719262151,2.7202941017470885,2.6739483914241875,6.7,8.5,4.5,2.8000000000000003,18.35,10.75,7.4,7.15,5,
1.7888543819998317,2.29128784747792,2.3345235059857505,2.80178514522438,3.9179076048319463,3.4132096331752027,2.073644135332772,2.5298221281347035,3.2,5.25,5.45,7.8500000000000005,15.350000000000001,11.65,4.3,6.4,5,
1.4317821063276353,3.1064449134018135,2.3664319132398464,3.057776970284131,3.9812058474788765,3.5846896657869842,2.9664793948382653,3.0166206257996713,2.0500000000000003,9.65,5.6000000000000005,9.35,15.850000000000001,12.850000000000001,8.8,9.1,5,
2.0615528128088303,2.7294688127912363,2.224859546128699,3.872983346207417,3.6674241641784495,3.52845575287547,2.1563858652847827,2.9664793948382653,4.25,7.45,4.95,15.0,13.450000000000001,12.450000000000001,4.65,8.8,5,
2.1908902300206643,2.4289915602982237,2.479919353527449,2.4698178070456938,3.687817782917155,3.391164991562634,2.224859546128699,1.7748239349298849,4.800000000000001,5.9,6.15,6.1000000000000005,13.600000000000001,11.5,4.95,3.1500000000000004,5,
2.6172504656604803,2.0976176963403033,1.7175564037317668,3.146426544510455,3.40587727318528,3.0166206257996713,2.3979157616563596,2.6739483914241875,6.8500000000000005,4.4,2.95,9.9,11.600000000000001,9.1,5.75,7.15,5,
1.6881943016134133,2.355843797877949,2.1095023109728985,2.224859546128699,3.987480407475377,3.3166247903554,2.8896366553599777,2.3874672772626644,2.85,5.550000000000001,4.45,4.95,15.9,11.0,8.35,5.7,5,
2.0124611797498106,2.792848008753788,2.3769728648009427,3.5777087639996634,4.277849927241488,3.968626966596886,2.1213203435596424,1.91049731745428,4.05,7.800000000000001,5.65,12.8,18.3,15.75,4.5,3.6500000000000004,5,
1.4832396974191326,2.692582403567252,2.085665361461421,3.5071355833500366,4.147288270665544,3.4132096331752027,2.3769728648009427,3.0659419433511785,2.2,7.25,4.3500000000000005,12.3,17.2,11.65,5.65,9.4,5,
1.5652475842498528,3.0983866769659336,2.0371548787463363,2.8460498941515415,3.5355339059327378,3.0659419433511785,2.4392621835300936,2.7202941017470885,2.45,9.600000000000001,4.15,8.1,12.5,9.4,5.95,7.4,5,
1.7175564037317668,2.924038303442689,2.7658633371878665,2.7838821814150108,3.057776970284131,2.6739483914241875,2.539685019840059,3.420526275297414,2.95,8.55,7.65,7.75,9.35,7.15,6.45,11.700000000000001,5,
2.073644135332772,2.6172504656604803,2.3769728648009427,2.6551836094703507,3.8275318418009276,3.1543620591175006,2.711088342345192,2.2135943621178655,4.3,6.8500000000000005,5.65,7.050000000000001,14.65,9.950000000000001,7.3500000000000005,4.9,5,
1.816590212458495,2.692582403567252,2.1908902300206643,2.6832815729997477,3.8078865529319543,3.9937451095431715,2.3021728866442674,3.2093613071762426,3.3000000000000003,7.25,4.800000000000001,7.2,14.5,15.950000000000001,5.300000000000001,10.3,5,
2.0371548787463363,2.6551836094703507,2.32379000772445,2.4289915602982237,3.847076812334269,3.138470965295043,2.2135943621178655,4.1952353926806065,4.15,7.050000000000001,5.4,5.9,14.8,9.850000000000001,4.9,17.6,5,
1.760681686165901,3.0083217912982647,2.588435821108957,3.024896692450835,4.577116996538323,3.3541019662496847,2.2135943621178655,2.80178514522438,3.1,9.05,6.7,9.15,20.950000000000003,11.25,4.9,7.8500000000000005,5,
1.9748417658131499,2.7838821814150108,2.4289915602982237,3.03315017762062,5.196152422706632,4.2130748865881795,2.4899799195977463,2.4899799195977463,3.9000000000000004,7.75,5.9,9.200000000000001,27.0,17.75,6.2,6.2,5,
2.1213203435596424,2.8284271247461903,2.04939015319192,1.857417562100671,3.5846896657869842,2.4083189157584592,2.4083189157584592,2.16794833886788,4.5,8.0,4.2,3.45,12.850000000000001,5.800000000000001,5.800000000000001,4.7,5,
1.8841443681416772,3.3689761055846033,3.024896692450835,3.0740852297878796,3.3391615714128,2.179449471770337,2.6457513110645907,2.5592967784139455,3.5500000000000003,11.350000000000001,9.15,9.450000000000001,11.15,4.75,7.0,6.550000000000001,5,
1.6583123951777,3.1622776601683795,2.3664319132398464,2.701851217221259,4.4328320518603,4.123105625617661,2.479919353527449,2.7386127875258306,2.75,10.0,5.6000000000000005,7.300000000000001,19.650000000000002,17.0,6.15,7.5,5,
2.23606797749979,3.024896692450835,2.4596747752497685,1.857417562100671,3.0659419433511785,2.3130067012440754,2.16794833886788,2.280350850198276,5.0,9.15,6.050000000000001,3.45,9.4,5.3500000000000005,4.7,5.2,5,
1.70293863659264,2.449489742783178,2.085665361461421,2.3769728648009427,2.5199206336708304,2.479919353527449,2.6739483914241875,2.5592967784139455,2.9000000000000004,6.0,4.3500000000000005,5.65,6.3500000000000005,6.15,7.15,6.550000000000001,5,
2.4083189157584592,3.3541019662496847,1.70293863659264,2.29128784747792,2.6739483914241875,2.5495097567963922,2.085665361461421,2.0976176963403033,5.800000000000001,11.25,2.9000000000000004,5.25,7.15,6.5,4.3500000000000005,4.4,5,
1.70293863659264,2.8722813232690143,2.5298221281347035,1.760681686165901,3.7349698793966195,2.898275349237888,2.247220505424423,2.5199206336708304,2.9000000000000004,8.25,6.4,3.1,13.950000000000001,8.4,5.050000000000001,6.3500000000000005,5,
1.2649110640673518,2.588435821108957,2.449489742783178,2.5,3.626292872893749,2.692582403567252,2.3979157616563596,2.5298221281347035,1.6,6.7,6.0,6.25,13.15,7.25,5.75,6.4,5,
1.9364916731037085,3.0413812651491097,2.224859546128699,1.8439088914585775,2.355843797877949,2.3979157616563596,2.3130067012440754,2.7748873851023217,3.75,9.25,4.95,3.4000000000000004,5.550000000000001,5.75,5.3500000000000005,7.7,5,
1.61245154965971,2.3130067012440754,2.345207879911715,2.16794833886788,3.0903074280724887,2.0615528128088303,1.5811388300841898,2.4596747752497685,2.6,5.3500000000000005,5.5,4.7,9.55,4.25,2.5,6.050000000000001,5,
1.857417562100671,2.32379000772445,1.9621416870348585,1.8439088914585775,3.1937438845342623,2.16794833886788,1.8841443681416772,3.146426544510455,3.45,5.4,3.85,3.4000000000000004,10.200000000000001,4.7,3.5500000000000003,9.9,5,
1.9364916731037085,2.711088342345192,2.202271554554524,2.1447610589527217,2.9748949561287032,2.5,2.1330729007701543,2.0,3.75,7.3500000000000005,4.8500000000000005,4.6000000000000005,8.85,6.25,4.55,4.0,5,
1.9493588689617927,2.5787593916455256,2.7748873851023217,1.70293863659264,2.932575659723036,2.258317958127243,1.816590212458495,2.6076809620810595,3.8000000000000003,6.65,7.7,2.9000000000000004,8.6,5.1000000000000005,3.3000000000000003,6.800000000000001,5,
1.449137674618944,2.701851217221259,1.8708286933869707,2.4083189157584592,3.082207001484488,1.8973665961010275,1.8439088914585775,2.4186773244895647,2.1,7.300000000000001,3.5,5.800000000000001,9.5,3.6,3.4000000000000004,5.8500000000000005,5,
2.0,3.3391615714128,2.2135943621178655,2.0124611797498106,3.0903074280724887,2.6645825188948455,1.8439088914585775,2.3021728866442674,4.0,11.15,4.9,4.05,9.55,7.1000000000000005,3.4000000000000004,5.300000000000001,5,
2.3979157616563596,2.7838821814150108,2.0248456731316584,1.857417562100671,3.1304951684997055,2.5199206336708304,2.3130067012440754,2.8635642126552705,5.75,7.75,4.1000000000000005,3.45,9.8,6.3500000000000005,5.3500000000000005,8.200000000000001,5,
2.1447610589527217,3.687817782917155,2.1563858652847827,2.4698178070456938,3.082207001484488,1.5491933384829668,2.0371548787463363,2.3664319132398464,4.6000000000000005,13.600000000000001,4.65,6.1000000000000005,9.5,2.4000000000000004,4.15,5.6000000000000005,5,
1.6278820596099706,3.0495901363953815,2.0248456731316584,1.7320508075688772,2.924038303442689,1.4142135623730951,2.5298221281347035,3.1780497164141406,2.6500000000000004,9.3,4.1000000000000005,3.0,8.55,2.0,6.4,10.100000000000001,5,
1.9748417658131499,2.8722813232690143,2.0976176963403033,1.9493588689617927,3.556683848755748,2.0976176963403033,1.8973665961010275,2.9068883707497264,3.9000000000000004,8.25,4.4,3.8000000000000003,12.65,4.4,3.6,8.450000000000001,5,
2.0615528128088303,3.4351128074635335,1.746424919657298,1.9493588689617927,3.1859064644147983,2.1447610589527217,2.247220505424423,2.9748949561287032,4.25,11.8,3.0500000000000003,3.8000000000000003,10.15,4.6000000000000005,5.050000000000001,8.85,5,
2.04939015319192,2.5787593916455256,1.9364916731037085,2.2135943621178655,2.0,1.6733200530681511,2.932575659723036,2.5298221281347035,4.2,6.65,3.75,4.9,4.0,2.8000000000000003,8.6,6.4,5,
1.8439088914585775,2.355843797877949,1.91049731745428,2.4392621835300936,4.05585995813465,1.9748417658131499,1.6278820596099706,3.3015148038438356,3.4000000000000004,5.550000000000001,3.6500000000000004,5.95,16.45,3.9000000000000004,2.6500000000000004,10.9,5,
2.1447610589527217,2.3345235059857505,2.1330729007701543,2.8548204847240397,2.1447610589527217,2.1213203435596424,2.3769728648009427,3.3241540277189325,4.6000000000000005,5.45,4.55,8.15,4.6000000000000005,4.5,5.65,11.05,5,
1.816590212458495,3.478505426185217,2.3021728866442674,2.3874672772626644,2.6551836094703507,2.32379000772445,2.202271554554524,2.32379000772445,3.3000000000000003,12.100000000000001,5.300000000000001,5.7,7.050000000000001,5.4,4.8500000000000005,5.4,5,
1.9621416870348585,2.6645825188948455,2.1330729007701543,1.61245154965971,2.5099800796022267,2.355843797877949,1.7175564037317668,2.3021728866442674,3.85,7.1000000000000005,4.55,2.6,6.300000000000001,5.550000000000001,2.95,5.300000000000001,5,
2.0615528128088303,2.449489742783178,2.8809720581775866,2.0615528128088303,1.91049731745428,1.5811388300841898,1.5968719422671311,2.2135943621178655,4.25,6.0,8.3,4.25,3.6500000000000004,2.5,2.5500000000000003,4.9,5,
1.9235384061671346,3.6945906403822333,2.3021728866442674,2.0976176963403033,2.4186773244895647,1.7175564037317668,1.9235384061671346,2.8372521918222215,3.7,13.65,5.300000000000001,4.4,5.8500000000000005,2.95,3.7,8.05,5,
1.3416407864998738,2.819574435974337,2.3769728648009427,2.5099800796022267,3.0983866769659336,2.4392621835300936,2.8372521918222215,2.5787593916455256,1.8,7.95,5.65,6.300000000000001,9.600000000000001,5.95,8.05,6.65,5,
1.9621416870348585,3.0659419433511785,2.0615528128088303,1.284523257866513,2.7386127875258306,1.7888543819998317,1.7175564037317668,3.0495901363953815,3.85,9.4,4.25,1.6500000000000001,7.5,3.2,2.95,9.3,5,
1.4317821063276353,3.3763886032268267,1.6881943016134133,1.8303005217723127,2.80178514522438,2.479919353527449,2.23606797749979,3.1064449134018135,2.0500000000000003,11.4,2.85,3.35,7.8500000000000005,6.15,5.0,9.65,5,
1.8973665961010275,2.8372521918222215,2.7477263328068173,2.1213203435596424,2.8548204847240397,2.29128784747792,2.5787593916455256,2.449489742783178,3.6,8.05,7.550000000000001,4.5,8.15,5.25,6.65,6.0,5,
1.746424919657298,2.5,2.16794833886788,1.9621416870348585,2.2135943621178655,1.6881943016134133,2.0124611797498106,2.224859546128699,3.0500000000000003,6.25,4.7,3.85,4.9,2.85,4.05,4.95,5,
1.6733200530681511,2.1330729007701543,2.1908902300206643,2.0615528128088303,2.598076211353316,2.0,2.2135943621178655,2.539685019840059,2.8000000000000003,4.55,4.800000000000001,4.25,6.75,4.0,4.9,6.45,5,
1.3038404810405297,2.7477263328068173,1.857417562100671,1.9874606914351791,2.224859546128699,2.3979157616563596,1.4317821063276353,2.32379000772445,1.7000000000000002,7.550000000000001,3.45,3.95,4.95,5.75,2.0500000000000003,5.4,5,
2.0976176963403033,1.9621416870348585,2.4186773244895647,2.1095023109728985,2.80178514522438,2.6362852652928135,1.5811388300841898,2.5099800796022267,4.4,3.85,5.8500000000000005,4.45,7.8500000000000005,6.95,2.5,6.300000000000001,5,
1.466287829861518,2.8635642126552705,1.8439088914585775,2.280350850198276,3.024896692450835,2.3130067012440754,2.3345235059857505,3.1543620591175006,2.15,8.200000000000001,3.4000000000000004,5.2,9.15,5.3500000000000005,5.45,9.950000000000001,5,
1.396424004376894,3.3541019662496847,2.1447610589527217,1.9874606914351791,3.361547262794322,2.0124611797498106,2.0615528128088303,2.8284271247461903,1.9500000000000002,11.25,4.6000000000000005,3.95,11.3,4.05,4.25,8.0,5,
1.224744871391589,3.024896692450835,1.9874606914351791,2.4698178070456938,2.756809750418044,2.179449471770337,2.345207879911715,2.6457513110645907,1.5,9.15,3.95,6.1000000000000005,7.6000000000000005,4.75,5.5,7.0,5,
2.0248456731316584,2.7477263328068173,2.1563858652847827,1.9364916731037085,3.6742346141747673,2.4083189157584592,1.9364916731037085,2.701851217221259,4.1000000000000005,7.550000000000001,4.65,3.75,13.5,5.800000000000001,3.75,7.300000000000001,5,
2.6551836094703507,3.170173496829472,1.746424919657298,1.1832159566199232,2.6362852652928135,1.5329709716755893,1.8841443681416772,3.271085446759225,7.050000000000001,10.05,3.0500000000000003,1.4000000000000001,6.95,2.35,3.5500000000000003,10.700000000000001,5,
1.8439088914585775,3.442382895611701,1.8439088914585775,2.202271554554524,2.9068883707497264,2.16794833886788,2.073644135332772,2.5787593916455256,3.4000000000000004,11.850000000000001,3.4000000000000004,4.8500000000000005,8.450000000000001,4.7,4.3,6.65,5,
1.8973665961010275,2.8284271247461903,2.224859546128699,2.0,3.146426544510455,2.4083189157584592,2.04939015319192,2.32379000772445,3.6,8.0,4.95,4.0,9.9,5.800000000000001,4.2,5.4,5,
2.0615528128088303,2.5,2.29128784747792,2.5099800796022267,2.8372521918222215,2.280350850198276,1.6583123951777,1.9748417658131499,4.25,6.25,5.25,6.300000000000001,8.05,5.2,2.75,3.9000000000000004,5,
