1,2,3,4,5,6,7,8,9,10,11,12,13,14,15,16,17,Average
10.406728592598157,29.748949561287034,63.038876893548796,55.84979856722851,20.502438879313846,16.97939928266015,12.543922831395289,7.968688725254614,108.30000000000001,885.0,3973.9,3119.2000000000003,420.35,288.3,157.35000000000002,63.5,1,47.72360457774208
9.121403400793104,25.44503880916671,50.92838108559902,56.839247004160775,24.935917869611295,15.663652192257079,10.307764064044152,10.779610382569492,83.2,647.45,2593.7000000000003,3230.7000000000003,621.8000000000001,245.35000000000002,106.25,116.2,1,56.98362898957391
7.365459931328117,15.149257407543116,36.7593525514256,41.454794656348255,12.575770354137356,10.480935072788114,7.9341036040626545,8.579044235810887,54.25,229.5,1351.25,1718.5,158.15,109.85000000000001,62.95,73.60000000000001,1,25.177653916158526
9.560334722173696,25.429313793337013,64.2635199782894,65.18435395092905,15.119523802024982,17.13038236584344,11.853269591129697,9.346122190513025,91.4,646.6500000000001,4129.8,4249.0,228.60000000000002,293.45,140.5,87.35000000000001,1,50.5114362648575
6.606814663663572,17.434161866863572,43.34801033496232,33.98529093593286,11.627553482998906,12.782800945019837,9.276313923105448,6.391400472509918,43.650000000000006,303.95,1879.0500000000002,1155.0,135.20000000000002,163.4,86.05000000000001,40.85,1,53.80576515662585
4.8270073544588685,9.677293009927931,33.372144072564474,27.45541840875859,8.62554346113913,6.749074010558782,5.286775955154521,7.784600182411426,23.3,93.65,1113.7,753.8000000000001,74.4,45.550000000000004,27.950000000000003,60.6,1,21.732110086079324
15.422386326376342,40.91515611604091,80.80996225713758,72.9163904756674,21.70483817032507,23.716028335284136,19.412624758130985,11.460802764204608,237.85000000000002,1674.0500000000002,6530.25,5316.8,471.1,562.45,376.85,131.35,1,57.09105316485103
8.637129152675673,26.251666613759973,52.60560806606079,40.71117782624325,14.815532390029054,11.412712210513327,7.328028384224504,8.84024886527523,74.60000000000001,689.1500000000001,2767.3500000000004,1657.4,219.5,130.25,53.7,78.15,1,66.70778516159919
4.376071297408213,7.6452599694189605,38.98717737923585,34.28264867246987,5.987486951969082,6.041522986797286,4.738143096192854,5.0099900199501395,19.150000000000002,58.45,1520.0,1175.3,35.85,36.5,22.450000000000003,25.1,1,22.961296866497868
9.864076236526156,18.005554698481244,51.66478491196881,55.84666507500694,13.021136663133523,13.114877048604,9.492101980067428,10.097029266076236,97.30000000000001,324.20000000000005,2669.25,3118.8500000000004,169.55,172.0,90.10000000000001,101.95,1,45.32598114560233
8.452810183601665,27.56537683399231,43.953384397563745,41.53071152773571,17.101169550647697,13.955285736952863,10.21518477561713,6.967783004657938,71.45,759.85,1931.9,1724.8000000000002,292.45,194.75,104.35000000000001,48.550000000000004,1,47.80908465476628
4.964876634922564,13.694889557787606,35.07135583350036,47.03243561628507,12.854960132182441,9.838699100999074,7.290404652692469,7.106335201775948,24.650000000000002,187.55,1230.0,2212.05,165.25,96.80000000000001,53.150000000000006,50.5,1,27.540051960137404
4.919349550499537,19.617594144033056,51.53299913647565,57.12004901958681,13.6106575888162,10.573551910309043,7.8230428862431785,5.928743543112655,24.200000000000003,384.85,2655.65,3262.7000000000003,185.25,111.80000000000001,61.2,35.15,1,43.30217748498801
5.882176467941097,13.334166640626627,42.399292446926516,51.862799770162816,11.536897329871667,10.641898326896381,8.408329203831164,8.977750274985375,34.6,177.8,1797.7,2689.75,133.1,113.25,70.7,80.60000000000001,1,27.166219779533776
9.013878188659973,27.76238462380348,58.86977153004758,45.65413453346805,14.508618128546908,12.77888884058391,10.062305898749054,8.429116205154607,81.25,770.75,3465.65,2084.3,210.5,163.3,101.25,71.05,1,50.634531988487055
5.463515351859094,13.696714934611146,25.67099530598687,31.623567161216965,10.86047881080756,8.48528137423857,6.082762530298219,7.155417527999327,29.85,187.60000000000002,659.0,1000.0500000000001,117.95,72.0,37.0,51.2,1,19.697530879377585
8.752142594816426,19.068298298484844,46.65672513153918,43.15669125408017,13.479614237803691,11.220516922138659,7.771743691090179,8.40535543567314,76.60000000000001,363.6,2176.85,1862.5,181.70000000000002,125.9,60.400000000000006,70.65,1,36.163860218763034
3.5425979167836705,7.956129712366434,27.437201023428027,25.5323324433942,8.33966426182733,8.105553651663778,4.2130748865881795,5.034878350069642,12.55,63.300000000000004,752.8000000000001,651.9000000000001,69.55,65.7,17.75,25.35,1,21.87182073442357
5.357238094391549,18.365728953678914,50.23843150417815,43.48160530615216,11.284945724282416,11.683321445547923,7.816648898345122,6.618156843109719,28.700000000000003,337.3,2523.9,1890.65,127.35000000000001,136.5,61.1,43.800000000000004,1,38.83781626380309
8.33966426182733,25.948024973010952,53.82982444704794,55.334889536349486,16.93517050401324,13.219304066402286,10.401922899156675,9.038805230781334,69.55,673.3000000000001,2897.65,3061.9500000000003,286.8,174.75,108.2,81.7,1,52.034127975613046
6.469157595854347,16.880462078983502,36.13793021189786,34.65977495599185,16.27421273057471,13.362260287840527,8.952653238007155,5.92452529743945,41.85,284.95,1305.95,1201.3,264.85,178.55,80.15,35.1,1,29.247627816667062
5.937171043518958,16.880462078983502,39.210330271498606,53.40599217316349,14.10319112825179,10.519030373565807,7.3246160308919945,7.483314773547883,35.25,284.95,1537.45,2852.2000000000003,198.9,110.65,53.650000000000006,56.0,1,37.674130241698236
7.92148975887743,22.09524835796149,46.8780332351945,46.77018280913599,9.346122190513025,12.561846997953765,6.648308055437865,9.460443964212251,62.75,488.20000000000005,2197.55,2187.4500000000003,87.35000000000001,157.8,44.2,89.5,1,29.32119308553835
5.9833101206606365,18.957847979135185,36.78450760850279,42.812381386697005,17.03378994821763,9.233092656309694,5.389805191284746,8.133265027035575,35.800000000000004,359.40000000000003,1353.1000000000001,1832.9,290.15000000000003,85.25,29.05,66.15,1,27.252981765316452
8.160882305241266,22.464416306683777,38.90886788381281,36.46916505762094,13.629013170439011,13.011533345459329,8.449852069711044,9.536770941990795,66.60000000000001,504.65000000000003,1513.9,1330.0,185.75,169.3,71.4,90.95,1,37.846687746157805
16.835973390332974,28.50526267200497,11.173629669896886,5.545268253204709,9.085703054799886,14.796959147068021,43.76585427019562,25.12866888635369,283.45,812.5500000000001,124.85000000000001,30.75,82.55000000000001,218.95000000000002,1915.45,631.45,2,19.894921049990792
16.112107248898266,24.7275150389197,13.914021704740868,7.797435475847171,10.719141756689293,18.985520798756088,53.532233280519876,23.391237675676763,259.6,611.45,193.60000000000002,60.800000000000004,114.9,360.45000000000005,2865.7000000000003,547.15,2,24.25995328101523
15.285614151874958,25.52057993071474,18.090052515125542,9.211405973031479,15.89339485446706,18.402445489662508,43.40334088523601,21.439449619801344,233.65,651.3000000000001,327.25,84.85000000000001,252.60000000000002,338.65000000000003,1883.8500000000001,459.65000000000003,2,22.415343647739054
19.521782705480565,20.793027677565384,11.730302638892145,4.748684028233506,7.024955515873392,15.774980190161887,40.18084120572888,25.447003752897903,381.1,432.35,137.6,22.55,49.35,248.85000000000002,1614.5,647.5500000000001,2,18.693217112538527
23.34416415295266,30.98144606050531,18.200274723201296,6.862943974709396,13.683932183404009,22.292375378142186,58.667708324085744,28.501754331970513,544.95,959.85,331.25,47.1,187.25,496.95000000000005,3441.9,812.35,2,26.974379042434208
14.373586887064759,16.425589791541732,11.05667219374799,4.873397172404482,8.769264507357502,19.367498547824912,60.69102075266159,39.41319575979598,206.60000000000002,269.8,122.25,23.75,76.9,375.1,3683.4,1553.4,2,28.250601625215516
17.19738352191984,13.621673905948564,10.116817681464859,5.962382074305537,9.682458365518542,19.53970317072396,43.37107330929222,16.665833312498957,295.75,185.55,102.35000000000001,35.550000000000004,93.75,381.8,1881.0500000000002,277.75,2,28.039514536147465
19.806564568344506,35.585109245300906,13.888844444373333,5.727128425310541,10.014988766843425,10.72846680565308,37.1887079635741,24.982994216066256,392.3,1266.3000000000002,192.9,32.800000000000004,100.30000000000001,115.10000000000001,1383.0,624.1500000000001,2,20.8244137642826
12.130539971493437,29.851298129227146,8.83742043811428,4.790615826801393,9.808159868191384,19.13765920900464,47.71739724670657,32.27460301847259,147.15,891.1,78.10000000000001,22.950000000000003,96.2,366.25,2276.9500000000003,1041.65,2,28.628798617269418
11.987493482792805,24.742675683927153,10.653637876331258,4.811444689487764,8.526429498916883,13.52405264704334,40.14722904510347,32.82301022148943,143.70000000000002,612.2,113.5,23.150000000000002,72.7,182.9,1611.8000000000002,1077.3500000000001,2,32.54880661998101
24.298148077579903,11.878552100319297,10.442700800080408,6.41482657598785,7.127411872482185,13.103434664239753,40.568460656031796,31.168092658999846,590.4,141.1,109.05000000000001,41.150000000000006,50.800000000000004,171.70000000000002,1645.8000000000002,971.45,2,18.965983644117088
12.118168178400563,27.361469258795296,13.878040207464453,6.749074010558782,10.36822067666386,10.504760825454333,34.94209495722888,15.697133496278868,146.85,748.6500000000001,192.60000000000002,45.550000000000004,107.5,110.35000000000001,1220.95,246.4,2,23.432613077639353
12.557866060760482,23.960383970212163,13.0,7.768526243760782,8.399404740813482,13.11678314221898,29.37856361362822,33.57901130170452,157.70000000000002,574.1,169.0,60.35,70.55,172.05,863.1,1127.55,2,24.63807239899169
23.924882444852262,26.71422841857874,13.311649033834989,6.648308055437865,7.372245248226622,15.472556349873152,48.21047603996459,33.713498780162226,572.4,713.6500000000001,177.20000000000002,44.2,54.35,239.4,2324.25,1136.6000000000001,2,26.847369991425154
16.3508409569661,24.111200716679374,14.267095009146045,6.51536645170477,6.96419413859206,12.330855606972293,34.71383009695127,35.37089198762168,267.35,581.35,203.55,42.45,48.5,152.05,1205.05,1251.1000000000001,2,29.86739986008369
20.34576122930769,21.493022123470677,14.357924641117183,6.2088646305101545,11.18257573191436,14.882876066137216,37.399197852360416,35.59072912992933,413.95000000000005,461.95000000000005,206.15,38.550000000000004,125.05000000000001,221.5,1398.7,1266.7,2,35.4808105587755
17.46424919657298,19.168985366993216,11.30044246921332,5.89915248150105,12.575770354137356,12.294307625889308,38.54088737950905,24.407990494917847,305.0,367.45000000000005,127.7,34.800000000000004,158.15,151.15,1485.4,595.75,2,20.56386964842931
23.616731357239086,18.584940139801365,8.5,4.868264577855234,11.178103595869919,11.171392035015153,38.638711158629505,27.134848442547085,557.75,345.40000000000003,72.25,23.700000000000003,124.95,124.80000000000001,1492.95,736.3000000000001,2,25.771419468732468
14.996666296213968,15.767054258801801,11.567194992737004,5.431390245600108,9.181503144910424,14.005356118285604,34.14381349527319,18.114910985152534,224.9,248.60000000000002,133.8,29.5,84.30000000000001,196.15,1165.8,328.15000000000003,2,17.598532708009927
14.019629096377694,12.423767544509193,8.73212459828649,3.8535697735995385,7.755643106796495,9.896969233053117,29.503389635768972,20.711108130662637,196.55,154.35000000000002,76.25,14.850000000000001,60.150000000000006,97.95,870.45,428.95000000000005,2,18.38518668457362
21.266170318136737,12.593649193144932,7.880355321938218,3.82099463490856,6.884765791223402,10.99317970379817,34.70518693221519,16.439282222773596,452.25,158.60000000000002,62.1,14.600000000000001,47.400000000000006,120.85000000000001,1204.45,270.25,2,18.57519517671811
14.265342617687105,14.145670715805595,11.164676439557038,4.224926034855522,7.085195833567341,15.226621424334422,43.915828581503504,23.147354060453647,203.5,200.10000000000002,124.65,17.85,50.2,231.85000000000002,1928.6000000000001,535.8000000000001,2,19.793318141613618
17.187204542915058,13.978555004005242,9.140568910084317,6.012487006222965,5.9455865984779,11.083771921146699,33.3601558749356,26.089269824968273,295.40000000000003,195.4,83.55000000000001,36.15,35.35,122.85000000000001,1112.9,680.6500000000001,2,19.822355768347112
14.696938456699069,26.190647185588983,12.24744871391589,5.848076606885378,9.625487000666512,13.392161886715677,26.85609800399157,24.545875417267155,216.0,685.95,150.0,34.2,92.65,179.35000000000002,721.25,602.5,2,25.317572621117712
12.459935794377111,9.058145505565696,8.879752248796134,5.612486080160912,7.566372975210778,9.705668446840743,36.31528603770043,21.303755537463342,155.25,82.05000000000001,78.85000000000001,31.5,57.25,94.2,1318.8000000000002,453.85,2,18.85248750216003
13.95886814895821,9.828529900244492,9.013878188659973,3.8275318418009276,5.585696017507576,9.851395840184273,30.541774670113718,19.82170527477391,194.85000000000002,96.60000000000001,81.25,14.65,31.200000000000003,97.05000000000001,932.8000000000001,392.90000000000003,2,20.562730406118625
10.428326807307105,14.931510305391079,9.214119599831555,4.272001872658765,7.046275611981127,10.583005244258363,29.222422897494315,20.96544776531138,108.75,222.95000000000002,84.9,18.25,49.650000000000006,112.0,853.95,439.55,2,20.393576520042643
64.46045299251317,56.27077394171863,26.264995716732948,16.049922118191105,15.329709716755891,15.469324484281788,17.727097901235837,24.085265205099986,4155.150000000001,3166.4,689.85,257.6,235.0,239.3,314.25,580.1,3,44.120536328935394
79.50062892832987,77.1060957382748,29.130739777767403,13.171939872319491,14.737706741552431,11.346805717910216,22.939049675171812,32.273053775557095,6320.35,5945.35,848.6,173.5,217.20000000000002,128.75,526.2,1041.55,3,66.68843483999672
80.22998192695796,74.48019871079829,22.685898703820396,17.40976737351766,20.80144225768973,21.081982828946618,40.43884271341108,40.8295236318035,6436.85,5547.3,514.65,303.1,432.70000000000005,444.45000000000005,1635.3000000000002,1667.0500000000002,3,75.79314722453654
95.11939865243052,78.16680881294822,21.68063652202121,14.15450458334731,14.84082207965583,16.76305461424021,17.926237753639217,36.78654645383282,9047.7,6110.05,470.05,200.35000000000002,220.25,281.0,321.35,1353.25,3,58.637496049912826
54.8010036404444,85.09670968962314,36.53423052426313,20.989282979654163,30.004166377354995,27.64597619907823,39.637103829619036,53.61529632483625,3003.15,7241.450000000001,1334.75,440.55,900.25,764.3000000000001,1571.1000000000001,2874.6000000000004,3,81.63175925128567
77.65275268784745,78.41364677146447,36.17664992781946,22.364033625444225,20.894975472586705,26.698314553544385,47.981246336459414,51.78175354311594,6029.950000000001,6148.700000000001,1308.75,500.15000000000003,436.6,712.8000000000001,2302.2000000000003,2681.3500000000004,3,81.7551782305438
62.370666182108394,61.56175760973691,23.536142419691465,12.911235417263523,15.668439615992398,12.517987058628874,17.432727841620196,26.408332018512642,3890.1000000000004,3789.8500000000004,553.95,166.70000000000002,245.5,156.70000000000002,303.90000000000003,697.4000000000001,3,48.97737572048384
35.55699649857957,72.59855370460214,22.371857321197094,15.773395322504284,15.034959261667456,15.349267083479914,43.029640946677674,32.20947065693567,1264.3000000000002,5270.55,500.5,248.8,226.05,235.60000000000002,1851.5500000000002,1037.45,3,67.08015565716953
42.81588490268536,63.086844904464826,28.710625210886647,16.62678561839299,23.728674636397205,21.898630094140593,35.82666604639622,33.384127965247195,1833.2,3979.9500000000003,824.3000000000001,276.45,563.0500000000001,479.55,1283.5500000000002,1114.5,3,67.8426993045335
42.66380198716472,55.9276318111182,14.720733677368122,5.549774770204643,11.779218989389747,9.749358953285082,12.971121771072847,17.96524422322168,1820.2,3127.9,216.70000000000002,30.8,138.75,95.05000000000001,168.25,322.75,3,52.29974613228354
60.3121049209858,52.19961685683143,13.509256086106296,8.258329128825032,13.503703195790404,14.53272169966796,38.80012886576538,27.066584564735905,3637.55,2724.8,182.5,68.2,182.35000000000002,211.20000000000002,1505.45,732.6,3,54.06362433397482
66.81953307229855,64.78502913482404,19.566553094502876,13.5,10.16857905510893,12.188108959145385,24.189873914512244,26.76284738214527,4464.85,4197.1,382.85,182.25,103.4,148.55,585.15,716.25,3,58.49232299582775
61.30089722018757,75.4897344014403,19.231484602078957,10.72846680565308,16.459040069214243,15.336231610144651,15.378556499229699,24.148498918152242,3757.8,5698.700000000001,369.85,115.10000000000001,270.90000000000003,235.20000000000002,236.5,583.15,3,41.22875870304914
65.4828221749796,62.49519981566584,26.410225292488512,18.326210737629317,19.668502739151243,15.738487856207787,23.221757039466244,32.613647450108985,4288.0,3905.65,697.5,335.85,386.85,247.70000000000002,539.25,1063.65,3,68.99246710855309
54.235136212606676,37.851023764225985,23.569047498785352,14.188023118109161,18.453996857049695,12.22906374175881,13.568345514468593,22.385263009399733,2941.4500000000003,1432.7,555.5,201.3,340.55,149.55,184.10000000000002,501.1,3,50.173111789945935
47.862302493716285,48.354420687254645,17.378147196982766,11.013627921806693,11.80889495253472,11.58015543937127,12.397580409095962,22.932509675131502,2290.8,2338.15,302.0,121.30000000000001,139.45000000000002,134.1,153.70000000000002,525.9,3,43.10272222574034
78.87426703304443,81.26807491260021,37.3677668586176,24.71841418861655,26.550894523537245,19.314502323383845,23.889328161335975,42.868986458744274,6221.150000000001,6604.5,1396.3500000000001,611.0,704.95,373.05,570.7,1837.75,3,62.96562942821292
66.16116685790843,70.26841395677008,20.3825906106167,12.292273996295396,20.900956915892632,14.923136399564267,39.313483691985375,29.631908477180474,4377.3,4937.650000000001,415.45000000000005,151.1,436.85,222.70000000000002,1545.5500000000002,878.0500000000001,3,52.08044549907159
80.20504971633645,84.09369774245867,45.245441759364006,29.654679226051325,24.720436889343198,23.06404127641121,36.73145790735783,43.2614146786718,6432.85,7071.75,2047.15,879.4000000000001,611.1,531.95,1349.2,1871.5500000000002,3,77.18105584961438
78.49363031482235,86.99051672452579,33.15418525616336,18.70427758562196,21.11752826445368,18.83613548475377,23.89979079406345,52.475708666010405,6161.25,7567.35,1099.2,349.85,445.95000000000005,354.8,571.2,2753.7000000000003,3,65.75733373721391
45.313353440238785,64.52247670385879,25.74781544131463,11.91007976463634,15.854021571828392,13.158647346897022,21.113976413740733,32.506153263651484,2053.3,4163.150000000001,662.95,141.85,251.35000000000002,173.15,445.8,1056.65,3,75.75649671419231
83.44189595161414,84.30243175614805,32.01015463880173,26.669270706189174,23.914430789797194,18.78563280807969,25.80600705262246,37.35839932331149,6962.55,7106.900000000001,1024.65,711.25,571.9,352.90000000000003,665.95,1395.65,3,73.93859544921833
72.8182669390037,69.91852401188115,23.645295515175953,18.170030269650074,15.725775020646836,14.10319112825179,22.85278976405288,37.0621100316752,5302.5,4888.6,559.1,330.15000000000003,247.3,198.9,522.25,1373.6000000000001,3,77.11047788401461
23.631546711969577,18.658778095041487,33.36240399012038,28.106938645110393,11.8911731969558,8.32165848854662,32.01874451005224,25.950915205441216,558.45,348.15000000000003,1113.05,790.0,141.4,69.25,1025.2,673.45,4,25.313464882056984
20.540204478047436,36.36688053710409,28.106049170952506,25.50098037331114,9.195107394696377,11.133283433021905,46.19469666530997,24.504081292715302,421.90000000000003,1322.5500000000002,789.95,650.3000000000001,84.55000000000001,123.95,2133.9500000000003,600.45,4,26.803959509210767
14.613350060817677,40.94020029262192,29.37260628544903,24.497959098667792,14.953260514014994,16.258843747327177,26.436716891475008,20.334699407662754,213.55,1676.1000000000001,862.75,600.15,223.60000000000002,264.35,698.9000000000001,413.5,4,24.999469735989464
26.567837698992367,50.94065174298421,48.857445696638706,33.80162717976754,14.198591479439079,14.989996664442591,47.40991457490722,28.956864471140516,705.85,2594.9500000000003,2387.05,1142.55,201.60000000000002,224.70000000000002,2247.7000000000003,838.5,4,29.827046606505434
27.247935701627014,45.84321105681843,35.864327680858594,28.330195904723286,16.501515081955354,14.998333240730451,29.38962401937119,33.647436752299576,742.45,2101.6,1286.25,802.6,272.3,224.95000000000002,863.75,1132.15,4,31.065911542245416
24.725492917230184,12.761269529321916,30.83342342329181,35.031414473298106,10.88806686239573,9.904544411531507,17.404022523543226,16.143109985377663,611.35,162.85000000000002,950.7,1227.2,118.55000000000001,98.10000000000001,302.90000000000003,260.6,4,22.383971814504285
28.080242164197944,55.97097462078001,40.92859636000238,27.673091623452553,14.534441853748634,12.381437719424994,26.539593063948814,31.422921570089564,788.5,3132.75,1675.15,765.8000000000001,211.25,153.3,704.35,987.4000000000001,4,31.35225304837533
33.662293445337326,40.98719312175451,32.389041356607024,31.73798985443155,11.933147112141038,11.819475453673906,23.026072179162473,21.757757237362494,1133.15,1679.95,1049.05,1007.3000000000001,142.4,139.70000000000002,530.2,473.40000000000003,4,29.705540738942055
14.676511847165866,30.41792234851026,26.710484832739372,24.828411145298848,14.399652773591452,12.8296531519757,27.763285108214408,18.448577180910185,215.4,925.25,713.45,616.45,207.35000000000002,164.60000000000002,770.8000000000001,340.35,4,28.283200499865202
13.92300254973761,11.18704608017684,24.42027845869084,23.967686580060246,10.611314715905847,7.58617163001207,14.0089257261219,17.57128339080558,193.85000000000002,125.15,596.35,574.45,112.60000000000001,57.550000000000004,196.25,308.75,4,22.173911984597403
36.17042991173868,27.302014577682723,47.24245971581073,38.62253228362946,13.468481725866505,11.061193425666147,21.374049686477292,35.08560958569767,1308.3000000000002,745.4000000000001,2231.85,1491.7,181.4,122.35000000000001,456.85,1231.0,4,31.295109431844857
18.3180239108917,26.91839519733671,32.918080138428486,33.34966266695962,12.621410380777577,11.787705459503133,20.549939172659368,24.1805707128678,335.55,724.6,1083.6000000000001,1112.2,159.3,138.95000000000002,422.3,584.7,4,35.98609747529454
19.133739833080202,16.049922118191105,32.54842546114942,27.2213151776324,11.77709641634983,7.752418977325722,16.178689687363438,23.605084198112916,366.1,257.6,1059.4,741.0,138.70000000000002,60.1,261.75,557.2,4,24.27485001018595
17.774982419119294,35.91308953571107,29.21900066737396,24.19297418673446,8.532291603080617,6.144102863722254,9.39946807005588,19.693907687404245,315.95000000000005,1289.75,853.75,585.3000000000001,72.8,37.75,88.35000000000001,387.85,4,25.707144682183433
16.847848527334286,20.692993983471798,33.31441129601422,30.94107302599572,10.302912209661887,8.17312669668102,12.359207094308275,13.369741957120938,283.85,428.20000000000005,1109.8500000000001,957.35,106.15,66.8,152.75,178.75,4,27.567023606365094
11.122050170719426,17.69463195435271,23.743420141167533,23.490423580684958,11.762227680163312,8.179242018671413,8.910667763978186,10.310189135025603,123.7,313.1,563.75,551.8000000000001,138.35,66.9,79.4,106.30000000000001,4,27.21574830334034
19.682479518597244,58.73627499254613,33.66749173906485,29.116146723081336,8.854377448471462,9.10494371207203,17.917868176767012,18.282505298782223,387.40000000000003,3449.9500000000003,1133.5,847.75,78.4,82.9,321.05,334.25,4,25.773576025264667
15.319921670818033,34.58540154458236,32.74217463761379,29.67322024991558,12.33288287465668,8.10246875958186,28.521921393903323,23.65375234502974,234.70000000000002,1196.15,1072.05,880.5,152.1,65.65,813.5,559.5,4,29.39468348649846
17.027918252094118,41.98511641046146,27.254357449773053,31.66543857267731,9.7082439194738,10.604244433244643,36.29393888791901,30.585944484354247,289.95,1762.75,742.8000000000001,1002.7,94.25,112.45,1317.25,935.5,4,21.080337793814216
16.24807680927192,28.788886744714528,36.5937153074131,33.99632333061915,14.20211251891774,11.565033506220377,26.43198819612327,36.50479420569304,264.0,828.8000000000001,1339.1000000000001,1155.75,201.70000000000002,133.75,698.6500000000001,1332.6000000000001,4,32.83088095164823
19.304144632694815,33.36615051215828,30.581857366746057,22.833090023034554,13.814847085653899,8.94427190999916,22.596459899727655,30.619438270484324,372.65000000000003,1113.3,935.25,521.35,190.85000000000002,80.0,510.6,937.5500000000001,4,28.414706676826853
17.124543789543708,32.21335126931068,27.204778991934486,27.213048340823562,8.049844718999243,7.92148975887743,28.188650198262422,21.22145141124895,293.25,1037.7,740.1,740.5500000000001,64.8,62.75,794.6,450.35,4,25.02306918192906
20.628863274548117,24.443813123160634,41.99761898012791,27.31849190566712,9.44192776926407,11.3754120804479,32.166753022336586,26.636441203734407,425.55,597.5,1763.8000000000002,746.3000000000001,89.15,129.4,1034.7,709.5,4,23.730243917285748
28.721072403376585,34.90487072028773,48.10197501142755,43.62911871674696,18.90634814024115,17.889941307897015,33.531328634576944,18.42823919966311,824.9000000000001,1218.3500000000001,2313.8,1903.5,357.45000000000005,320.05,1124.3500000000001,339.6,4,35.473805311207045
19.0473095212946,31.290573660449244,32.17607807051692,25.630060475933334,9.22767576370128,8.136338242723197,16.258843747327177,20.378910667648555,362.8,979.1,1035.3,656.9000000000001,85.15,66.2,264.35,415.3,4,20.012251924145307
21.7635015565051,53.849326829589984,42.16574439044092,39.30585198160701,12.876334882255899,9.615092303249096,24.692104001076945,18.471599822430107,473.65000000000003,2899.75,1777.95,1544.95,165.8,92.45,609.7,341.20000000000005,4,32.46795622877018
7.661592523751182,12.4056438768812,36.45133742402328,34.66987164671943,12.091319200153471,10.052362906302179,12.64317997973611,15.300326793895612,58.7,153.9,1328.7,1202.0,146.20000000000002,101.05000000000001,159.85000000000002,234.10000000000002,4,21.40310494472132
35.627236771885634,65.31653695657785,49.8196748283246,39.559448934483406,23.379478180660918,21.789905919943756,26.626115000127225,17.68049773055046,1269.3000000000002,4266.25,2482.0,1564.95,546.6,474.8,708.95,312.6,4,37.11466029060142
31.261797773000836,52.36554210547237,35.64617791573173,31.049154577862502,14.53100134195851,10.768008172359455,26.001923005808628,28.48245073725223,977.3000000000001,2742.15,1270.65,964.0500000000001,211.15,115.95,676.1,811.25,4,35.30430175617296
17.515707236649053,30.2539253651489,30.851256052225814,32.32723310151984,15.890248582070704,11.806777714516354,14.599657530229948,23.926972228010797,306.8,915.3000000000001,951.8000000000001,1045.05,252.5,139.4,213.15,572.5,4,31.688193839691177
17.153716798408443,21.66102490649969,25.65151067676132,25.053941805632103,11.020435563080072,9.033271832508971,14.076576288288285,18.08590611498357,294.25,469.20000000000005,658.0,627.7,121.45,81.60000000000001,198.15,327.1,4,28.69058745357598
1.9748417658131499,6.6932802122726045,2.8548204847240397,3.248076353782343,7.321202087089251,5.224940191045253,3.1859064644147983,5.054700782440045,3.9000000000000004,44.800000000000004,8.15,10.55,53.6,27.3,10.15,25.55,5,
1.7320508075688772,7.687652437513028,2.32379000772445,3.653765181289022,7.021395872616783,4.685082710048992,2.6457513110645907,4.460941604639093,3.0,59.1,5.4,13.350000000000001,49.300000000000004,21.950000000000003,7.0,19.900000000000002,5,
2.5787593916455256,5.253570214625479,2.7477263328068173,3.5425979167836705,5.089204259999788,4.376071297408213,3.4132096331752027,2.932575659723036,6.65,27.6,7.550000000000001,12.55,25.900000000000002,19.150000000000002,11.65,8.6,5,
2.5787593916455256,4.254409477236529,2.1095023109728985,2.4186773244895647,2.6362852652928135,2.4289915602982237,1.5,3.1304951684997055,6.65,18.1,4.45,5.8500000000000005,6.95,5.9,2.25,9.8,5,
2.4392621835300936,3.5496478698597698,3.082207001484488,3.2326459750489227,5.338539126015656,3.6674241641784495,2.539685019840059,3.0659419433511785,5.95,12.600000000000001,9.5,10.450000000000001,28.5,13.450000000000001,6.45,9.4,5,
2.1447610589527217,3.1859064644147983,1.8027756377319946,2.8372521918222215,4.415880433163924,4.381780460041329,2.9916550603303182,2.4289915602982237,4.6000000000000005,10.15,3.25,8.05,19.5,19.200000000000003,8.950000000000001,5.9,5,
1.857417562100671,4.03732584763727,2.4186773244895647,3.7080992435478315,5.670097000933935,4.9749371855331,3.1859064644147983,2.3021728866442674,3.45,16.3,5.8500000000000005,13.75,32.15,24.75,10.15,5.300000000000001,5,
1.7320508075688772,3.6193922141707713,1.8303005217723127,3.7349698793966195,5.2583267300539625,3.0903074280724887,3.442382895611701,3.0166206257996713,3.0,13.100000000000001,3.35,13.950000000000001,27.650000000000002,9.55,11.850000000000001,9.1,5,
2.1563858652847827,3.6606010435446255,2.16794833886788,2.692582403567252,4.483302354291979,3.9749213828703582,2.23606797749979,3.0495901363953815,4.65,13.4,4.7,7.25,20.1,15.8,5.0,9.3,5,
1.9235384061671346,3.52845575287547,2.0371548787463363,2.949576240750525,4.398863489584555,4.722287581247038,2.9664793948382653,2.0124611797498106,3.7,12.450000000000001,4.15,8.700000000000001,19.35,22.3,8.8,4.05,5,
2.3021728866442674,3.248076353782343,2.539685019840059,3.63318042491699,5.513619500836088,5.272570530585627,2.8284271247461903,2.6832815729997477,5.300000000000001,10.55,6.45,13.200000000000001,30.400000000000002,27.8,8.0,7.2,5,
2.4899799195977463,2.7838821814150108,2.449489742783178,3.0983866769659336,4.8425200051213,3.872983346207417,2.247220505424423,2.5495097567963922,6.2,7.75,6.0,9.600000000000001,23.450000000000003,15.0,5.050000000000001,6.5,5,
2.0976176963403033,2.6172504656604803,2.8548204847240397,3.8144462245521304,4.171330722922842,3.248076353782343,2.8372521918222215,2.0248456731316584,4.4,6.8500000000000005,8.15,14.55,17.400000000000002,10.55,8.05,4.1000000000000005,5,
1.9748417658131499,3.721558813185679,2.692582403567252,3.286335345030997,4.795831523312719,4.511097427455985,2.792848008753788,2.7386127875258306,3.9000000000000004,13.850000000000001,7.25,10.8,23.0,20.35,7.800000000000001,7.5,5,
1.466287829861518,2.7202941017470885,2.3979157616563596,2.539685019840059,5.079370039680118,4.312771730569565,2.9748949561287032,3.1304951684997055,2.15,7.4,5.75,6.45,25.8,18.6,8.85,9.8,5,
2.224859546128699,2.29128784747792,2.4083189157584592,2.5298221281347035,3.1622776601683795,4.09878030638384,2.5298221281347035,2.1213203435596424,4.95,5.25,5.800000000000001,6.4,10.0,16.8,6.4,4.5,5,
2.179449471770337,3.8794329482541645,2.5298221281347035,3.4351128074635335,4.914264950122246,4.8166378315169185,2.756809750418044,2.924038303442689,4.75,15.05,6.4,11.8,24.150000000000002,23.200000000000003,7.6000000000000005,8.55,5,
2.16794833886788,3.924283374069717,2.6457513110645907,4.5,4.716990566028302,4.455333881989093,2.3769728648009427,2.819574435974337,4.7,15.4,7.0,20.25,22.25,19.85,5.65,7.95,5,
2.1447610589527217,3.6606010435446255,2.355843797877949,2.756809750418044,4.324349662087931,3.943348830626071,2.0371548787463363,2.2693611435820435,4.6000000000000005,13.4,5.550000000000001,7.6000000000000005,18.7,15.55,4.15,5.15,5,
1.396424004376894,3.8794329482541645,2.3345235059857505,2.1447610589527217,4.69041575982343,3.5425979167836705,2.04939015319192,2.3769728648009427,1.9500000000000002,15.05,5.45,4.6000000000000005,22.0,12.55,4.2,5.65,5,
1.9235384061671346,2.9748949561287032,1.3038404810405297,4.790615826801393,5.412947441089743,5.830951894845301,3.9115214431215892,2.5199206336708304,3.7,8.85,1.7000000000000002,22.950000000000003,29.3,34.0,15.3,6.3500000000000005,5,
2.0976176963403033,2.8722813232690143,2.247220505424423,3.8275318418009276,5.2345009313209605,3.4856850115866753,3.082207001484488,2.2693611435820435,4.4,8.25,5.050000000000001,14.65,27.400000000000002,12.15,9.5,5.15,5,
2.0248456731316584,3.449637662132068,2.32379000772445,2.4392621835300936,4.5,3.4641016151377544,2.4186773244895647,2.819574435974337,4.1000000000000005,11.9,5.4,5.95,20.25,12.0,5.8500000000000005,7.95,5,
1.7888543819998317,3.7682887362833544,2.29128784747792,2.932575659723036,3.8987177379235853,3.1543620591175006,2.6076809620810595,2.9664793948382653,3.2,14.200000000000001,5.25,8.6,15.200000000000001,9.950000000000001,6.800000000000001,8.8,5,
1.7320508075688772,2.9832867780352594,2.3874672772626644,2.5298221281347035,4.024922359499621,3.987480407475377,2.4289915602982237,2.3979157616563596,3.0,8.9,5.7,6.4,16.2,15.9,5.9,5.75,5,
1.6278820596099706,3.892300091205713,2.4289915602982237,3.263433774416144,5.029910535983717,4.934571916590131,3.52845575287547,2.80178514522438,2.6500000000000004,15.15,5.9,10.65,25.3,24.35,12.450000000000001,7.8500000000000005,5,
1.8439088914585775,3.1304951684997055,2.280350850198276,2.5,4.4777226354476225,4.642197755374064,2.280350850198276,2.9832867780352594,3.4000000000000004,9.8,5.2,6.25,20.05,21.55,5.2,8.9,5,
1.7320508075688772,2.6267851073127395,1.8708286933869707,2.569046515733026,4.312771730569565,4.364630568559039,2.924038303442689,2.5495097567963922,3.0,6.9,3.5,6.6000000000000005,18.6,19.05,8.55,6.5,5,
2.7748873851023217,3.391164991562634,2.1563858652847827,5.621387729022079,8.907861696277058,7.622335600063802,3.5,2.9748949561287032,7.7,11.5,4.65,31.6,79.35000000000001,58.1,12.25,8.85,5,
1.9621416870348585,3.6742346141747673,2.355843797877949,3.847076812334269,5.412947441089743,3.7483329627982624,2.280350850198276,2.8372521918222215,3.85,13.5,5.550000000000001,14.8,29.3,14.05,5.2,8.05,5,
2.1095023109728985,4.254409477236529,1.9364916731037085,3.2326459750489227,5.315072906367325,5.554277630799526,2.6362852652928135,2.692582403567252,4.45,18.1,3.75,10.450000000000001,28.25,30.85,6.95,7.25,5,
2.355843797877949,3.7080992435478315,2.449489742783178,3.7013511046643495,4.898979485566356,5.1478150704935,3.1543620591175006,2.8460498941515415,5.550000000000001,13.75,6.0,13.700000000000001,24.0,26.5,9.950000000000001,8.1,5,
1.70293863659264,3.4351128074635335,2.6645825188948455,2.9154759474226504,4.674398357008098,3.8535697735995385,3.22490309931942,1.9364916731037085,2.9000000000000004,11.8,7.1000000000000005,8.5,21.85,14.850000000000001,10.4,3.75,5,
2.1908902300206643,3.03315017762062,1.7320508075688772,2.539685019840059,3.3015148038438356,4.347413023856832,3.4713109915419564,2.7477263328068173,4.800000000000001,9.200000000000001,3.0,6.45,10.9,18.900000000000002,12.05,7.550000000000001,5,
2.29128784747792,3.3015148038438356,1.6278820596099706,2.6645825188948455,3.872983346207417,3.263433774416144,2.2135943621178655,3.0740852297878796,5.25,10.9,2.6500000000000004,7.1000000000000005,15.0,10.65,4.9,9.450000000000001,5,
2.1213203435596424,3.9179076048319463,2.2693611435820435,3.138470965295043,4.147288270665544,3.598610843089316,2.4289915602982237,2.8809720581775866,4.5,15.350000000000001,5.15,9.850000000000001,17.2,12.950000000000001,5.9,8.3,5,
1.746424919657298,3.278719262151,2.5,2.3021728866442674,4.4328320518603,3.146426544510455,2.179449471770337,2.8896366553599777,3.0500000000000003,10.75,6.25,5.300000000000001,19.650000000000002,9.9,4.75,8.35,5,
1.7320508075688772,3.1064449134018135,2.3130067012440754,3.1622776601683795,5.094114250780011,3.9496835316262997,2.7294688127912363,2.588435821108957,3.0,9.65,5.3500000000000005,10.0,25.950000000000003,15.600000000000001,7.45,6.7,5,
2.0,2.898275349237888,2.0976176963403033,2.598076211353316,4.868264577855234,3.2939338184001206,2.924038303442689,3.082207001484488,4.0,8.4,4.4,6.75,23.700000000000003,10.850000000000001,8.55,9.5,5,
1.91049731745428,2.8106938645110393,2.355843797877949,3.5777087639996634,3.6193922141707713,3.8013155617496426,2.6362852652928135,2.6362852652928135,3.6500000000000004,7.9,5.550000000000001,12.8,13.100000000000001,14.450000000000001,6.95,6.95,5,
2.16794833886788,3.5142566781611158,2.4083189157584592,3.1144823004794873,4.795831523312719,3.7549966711037173,2.3769728648009427,2.4083189157584592,4.7,12.350000000000001,5.800000000000001,9.700000000000001,23.0,14.100000000000001,5.65,5.800000000000001,5,
1.5652475842498528,3.170173496829472,2.0,1.816590212458495,2.949576240750525,2.3874672772626644,1.9874606914351791,2.29128784747792,2.45,10.05,4.0,3.3000000000000003,8.700000000000001,5.7,3.95,5.25,5,
1.5329709716755893,2.7202941017470885,2.224859546128699,2.8460498941515415,3.605551275463989,3.1304951684997055,2.0371548787463363,2.345207879911715,2.35,7.4,4.95,8.1,13.0,9.8,4.15,5.5,5,
2.3345235059857505,3.22490309931942,1.8303005217723127,2.924038303442689,3.905124837953327,2.479919353527449,2.1330729007701543,2.0248456731316584,5.45,10.4,3.35,8.55,15.25,6.15,4.55,4.1000000000000005,5,
1.4142135623730951,2.9832867780352594,2.0371548787463363,2.6076809620810595,3.653765181289022,2.9832867780352594,2.8896366553599777,2.29128784747792,2.0,8.9,4.15,6.800000000000001,13.350000000000001,8.9,8.35,5.25,5,
2.479919353527449,3.146426544510455,2.2135943621178655,2.9748949561287032,4.415880433163924,4.272001872658765,2.5592967784139455,2.1330729007701543,6.15,9.9,4.9,8.85,19.5,18.25,6.550000000000001,4.55,5,
2.449489742783178,3.082207001484488,2.701851217221259,3.024896692450835,4.711687595755898,3.987480407475377,2.5787593916455256,2.6457513110645907,6.0,9.5,7.300000000000001,9.15,22.200000000000003,15.9,6.65,7.0,5,
2.5592967784139455,2.29128784747792,2.1908902300206643,2.6172504656604803,3.0083217912982647,2.345207879911715,2.355843797877949,2.16794833886788,6.550000000000001,5.25,4.800000000000001,6.8500000000000005,9.05,5.5,5.550000000000001,4.7,5,
2.4186773244895647,2.202271554554524,2.9832867780352594,3.687817782917155,4.984977432245807,3.5142566781611158,2.1095023109728985,2.0,5.8500000000000005,4.8500000000000005,8.9,13.600000000000001,24.85,12.350000000000001,4.45,4.0,5,
1.9748417658131499,2.9832867780352594,2.085665361461421,2.355843797877949,3.924283374069717,4.266145801540309,3.646916505762094,2.4289915602982237,3.9000000000000004,8.9,4.3500000000000005,5.550000000000001,15.4,18.2,13.3,5.9,5,
2.5495097567963922,4.301162633521313,2.1563858652847827,3.0083217912982647,3.7616485747608057,3.640054944640259,2.1447610589527217,2.449489742783178,6.5,18.5,4.65,9.05,14.15,13.25,4.6000000000000005,6.0,5,
2.224859546128699,3.3241540277189325,1.6278820596099706,2.819574435974337,2.9410882339705484,2.6076809620810595,2.6457513110645907,2.6645825188948455,4.95,11.05,2.6500000000000004,7.95,8.65,6.800000000000001,7.0,7.1000000000000005,5,
2.0615528128088303,3.331666249791536,2.2135943621178655,2.6832815729997477,4.904079934095692,4.080441152620633,3.0903074280724887,2.9154759474226504,4.25,11.100000000000001,4.9,7.2,24.05,16.650000000000002,9.55,8.5,5,
1.5491933384829668,3.0983866769659336,2.7202941017470885,2.7838821814150108,3.6674241641784495,3.2093613071762426,2.7658633371878665,2.924038303442689,2.4000000000000004,9.600000000000001,7.4,7.75,13.450000000000001,10.3,7.65,8.55,5,
1.6583123951777,3.8794329482541645,2.8372521918222215,3.1937438845342623,5.616938667993447,4.753945729601885,2.224859546128699,3.146426544510455,2.75,15.05,8.05,10.200000000000001,31.55,22.6,4.95,9.9,5,
2.2135943621178655,2.8284271247461903,2.5787593916455256,3.721558813185679,3.905124837953327,3.556683848755748,2.8106938645110393,3.398529093593286,4.9,8.0,6.65,13.850000000000001,15.25,12.65,7.9,11.55,5,
1.7320508075688772,3.146426544510455,2.3130067012440754,1.9748417658131499,4.207136793592526,3.2015621187164243,2.6457513110645907,2.5099800796022267,3.0,9.9,5.3500000000000005,3.9000000000000004,17.7,10.25,7.0,6.300000000000001,5,
2.0976176963403033,3.170173496829472,1.91049731745428,3.5496478698597698,5.300943312279429,4.488875137492688,2.6551836094703507,2.5495097567963922,4.4,10.05,3.6500000000000004,12.600000000000001,28.1,20.150000000000002,7.050000000000001,6.5,5,
2.073644135332772,2.7838821814150108,2.7658633371878665,2.5099800796022267,4.857983120596447,3.8275318418009276,2.4698178070456938,2.9664793948382653,4.3,7.75,7.65,6.300000000000001,23.6,14.65,6.1000000000000005,8.8,5,
2.6076809620810595,3.6124783736376886,2.3769728648009427,2.8548204847240397,4.527692569068709,3.8144462245521304,2.756809750418044,2.7477263328068173,6.800000000000001,13.05,5.65,8.15,20.5,14.55,7.6000000000000005,7.550000000000001,5,
1.6881943016134133,2.792848008753788,2.5199206336708304,2.932575659723036,4.159326868617084,3.22490309931942,2.5099800796022267,2.3874672772626644,2.85,7.800000000000001,6.3500000000000005,8.6,17.3,10.4,6.300000000000001,5.7,5,
1.7320508075688772,2.6457513110645907,3.0413812651491097,2.924038303442689,4.5,3.5846896657869842,2.8635642126552705,2.6172504656604803,3.0,7.0,9.25,8.55,20.25,12.850000000000001,8.200000000000001,6.8500000000000005,5,
1.61245154965971,3.40587727318528,2.3874672772626644,2.3664319132398464,4.415880433163924,4.764451699828638,2.8896366553599777,2.8635642126552705,2.6,11.600000000000001,5.7,5.6000000000000005,19.5,22.700000000000003,8.35,8.200000000000001,5,
1.9874606914351791,3.7080992435478315,1.8027756377319946,3.591656999213594,5.477225575051661,4.2485291572496005,2.4698178070456938,3.442382895611701,3.95,13.75,3.25,12.9,30.0,18.05,6.1000000000000005,11.850000000000001,5,
1.816590212458495,3.3466401061363023,2.23606797749979,2.449489742783178,5.229722745997153,4.924428900898052,3.03315017762062,2.9916550603303182,3.3000000000000003,11.200000000000001,5.0,6.0,27.35,24.25,9.200000000000001,8.950000000000001,5,
1.4317821063276353,3.5355339059327378,1.9235384061671346,2.7658633371878665,3.1937438845342623,3.2171415884290826,2.819574435974337,2.8284271247461903,2.0500000000000003,12.5,3.7,7.65,10.200000000000001,10.350000000000001,7.95,8.0,5,
2.224859546128699,2.9068883707497264,2.588435821108957,2.073644135332772,4.571651780264984,4.685082710048992,3.442382895611701,2.6267851073127395,4.95,8.450000000000001,6.7,4.3,20.900000000000002,21.950000000000003,11.850000000000001,6.9,5,
2.0615528128088303,3.22490309931942,2.1563858652847827,3.0083217912982647,5.468089245796926,4.6475800154489,2.6076809620810595,2.8896366553599777,4.25,10.4,4.65,9.05,29.900000000000002,21.6,6.800000000000001,8.35,5,
1.760681686165901,3.5355339059327378,2.819574435974337,2.345207879911715,4.33589667773576,3.63318042491699,2.1213203435596424,2.8460498941515415,3.1,12.5,7.95,5.5,18.8,13.200000000000001,4.5,8.1,5,
1.9493588689617927,2.8635642126552705,2.4392621835300936,2.3664319132398464,4.324349662087931,2.898275349237888,2.3021728866442674,2.3664319132398464,3.8000000000000003,8.200000000000001,5.95,5.6000000000000005,18.7,8.4,5.300000000000001,5.6000000000000005,5,
2.1908902300206643,3.9560080889704965,2.179449471770337,4.636809247747852,3.8535697735995385,3.420526275297414,3.0166206257996713,2.4186773244895647,4.800000000000001,15.65,4.75,21.5,14.850000000000001,11.700000000000001,9.1,5.8500000000000005,5,
2.5787593916455256,4.147288270665544,2.5099800796022267,2.958039891549808,3.7080992435478315,3.361547262794322,2.4289915602982237,2.0371548787463363,6.65,17.2,6.300000000000001,8.75,13.75,11.3,5.9,4.15,5,
2.6362852652928135,3.024896692450835,2.258317958127243,2.5495097567963922,2.6362852652928135,2.7202941017470885,2.32379000772445,2.5495097567963922,6.95,9.15,5.1000000000000005,6.5,6.95,7.4,5.4,6.5,5,
1.760681686165901,2.819574435974337,2.6362852652928135,3.591656999213594,5.019960159204453,3.840572873934304,2.6551836094703507,2.0371548787463363,3.1,7.95,6.95,12.9,25.200000000000003,14.75,7.050000000000001,4.15,5,
2.16794833886788,3.2939338184001206,2.3874672772626644,3.22490309931942,4.09878030638384,3.0,2.29128784747792,3.442382895611701,4.7,10.850000000000001,5.7,10.4,16.8,9.0,5.25,11.850000000000001,5,
1.8708286933869707,3.4856850115866753,2.29128784747792,2.7838821814150108,5.224940191045253,4.049691346263317,2.8635642126552705,2.449489742783178,3.5,12.15,5.25,7.75,27.3,16.400000000000002,8.200000000000001,6.0,5,
2.1447610589527217,3.8794329482541645,1.8973665961010275,2.3021728866442674,4.764451699828638,4.09878030638384,2.4596747752497685,2.4392621835300936,4.6000000000000005,15.05,3.6,5.300000000000001,22.700000000000003,16.8,6.050000000000001,5.95,5,
1.9235384061671346,4.266145801540309,2.4698178070456938,2.7386127875258306,5.0,3.420526275297414,3.0413812651491097,2.355843797877949,3.7,18.2,6.1000000000000005,7.5,25.0,11.700000000000001,9.25,5.550000000000001,5,
2.23606797749979,3.3090784215548594,2.085665361461421,2.9832867780352594,3.681032463861192,2.9916550603303182,3.057776970284131,2.1330729007701543,5.0,10.950000000000001,4.3500000000000005,8.9,13.55,8.950000000000001,9.35,4.55,5,
2.569046515733026,3.4132096331752027,1.91049731745428,2.6172504656604803,2.8635642126552705,3.681032463861192,2.4899799195977463,2.479919353527449,6.6000000000000005,11.65,3.6500000000000004,6.8500000000000005,8.200000000000001,13.55,6.2,6.15,5,
2.4289915602982237,2.479919353527449,2.16794833886788,3.442382895611701,4.685082710048992,5.576737397439475,2.5298221281347035,2.449489742783178,5.9,6.15,4.7,11.850000000000001,21.950000000000003,31.1,6.4,6.0,5,
1.857417562100671,2.711088342345192,2.345207879911715,3.924283374069717,4.847679857416329,4.236744032862972,3.3391615714128,2.4392621835300936,3.45,7.3500000000000005,5.5,15.4,23.5,17.95,11.15,5.95,5,
2.3345235059857505,3.0495901363953815,2.588435821108957,3.248076353782343,5.176871642217914,3.8078865529319543,2.1447610589527217,2.5298221281347035,5.45,9.3,6.7,10.55,26.8,14.5,4.6000000000000005,6.4,5,
2.3345235059857505,2.6739483914241875,2.258317958127243,2.598076211353316,3.872983346207417,3.8858718455450894,3.4641016151377544,1.8708286933869707,5.45,7.15,5.1000000000000005,6.75,15.0,15.100000000000001,12.0,3.5,5,
1.2041594578792296,2.9410882339705484,3.0083217912982647,3.0903074280724887,6.0909769331364245,5.059644256269407,2.5099800796022267,3.2171415884290826,1.4500000000000002,8.65,9.05,9.55,37.1,25.6,6.300000000000001,10.350000000000001,5,
1.6733200530681511,4.06201920231798,2.29128784747792,2.5099800796022267,4.11703777004778,3.905124837953327,2.3769728648009427,2.4186773244895647,2.8000000000000003,16.5,5.25,6.300000000000001,16.95,15.25,5.65,5.8500000000000005,5,
1.51657508881031,3.570714214271425,2.3979157616563596,2.924038303442689,4.8425200051213,2.6172504656604803,2.569046515733026,2.247220505424423,2.3000000000000003,12.75,5.75,8.55,23.450000000000003,6.8500000000000005,6.6000000000000005,5.050000000000001,5,
2.202271554554524,3.3391615714128,2.701851217221259,3.5425979167836705,3.9115214431215892,3.7080992435478315,2.179449471770337,2.5787593916455256,4.8500000000000005,11.15,7.300000000000001,12.55,15.3,13.75,4.75,6.65,5,
2.0371548787463363,3.8340579025361627,2.588435821108957,2.449489742783178,4.092676385936225,3.788139384975162,3.138470965295043,3.1622776601683795,4.15,14.700000000000001,6.7,6.0,16.75,14.350000000000001,9.850000000000001,10.0,5,
2.16794833886788,3.4856850115866753,3.0166206257996713,3.24037034920393,4.47213595499958,3.6606010435446255,2.5199206336708304,2.5,4.7,12.15,9.1,10.5,20.0,13.4,6.3500000000000005,6.25,5,
1.70293863659264,2.9748949561287032,2.479919353527449,3.3541019662496847,3.4856850115866753,3.248076353782343,2.0371548787463363,2.711088342345192,2.9000000000000004,8.85,6.15,11.25,12.15,10.55,4.15,7.3500000000000005,5,
1.760681686165901,3.3090784215548594,2.0248456731316584,3.456877203488721,4.795831523312719,3.146426544510455,2.179449471770337,2.3664319132398464,3.1,10.950000000000001,4.1000000000000005,11.950000000000001,23.0,9.9,4.75,5.6000000000000005,5,
2.3979157616563596,4.201190307520001,3.0166206257996713,3.24037034920393,3.5142566781611158,3.714835124201342,2.3130067012440754,2.7748873851023217,5.75,17.650000000000002,9.1,10.5,12.350000000000001,13.8,5.3500000000000005,7.7,5,
2.1908902300206643,3.1304951684997055,2.5592967784139455,3.3166247903554,4.153311931459037,3.146426544510455,2.0248456731316584,2.6645825188948455,4.800000000000001,9.8,6.550000000000001,11.0,17.25,9.9,4.1000000000000005,7.1000000000000005,5,
1.6583123951777,2.9154759474226504,2.0124611797498106,3.286335345030997,4.347413023856832,4.092676385936225,2.569046515733026,2.0248456731316584,2.75,8.5,4.05,10.8,18.900000000000002,16.75,6.6000000000000005,4.1000000000000005,5,
2.598076211353316,3.057776970284131,2.5592967784139455,3.1543620591175006,3.681032463861192,3.0903074280724887,2.4899799195977463,2.932575659723036,6.75,9.35,6.550000000000001,9.950000000000001,13.55,9.55,6.2,8.6,5,
2.1563858652847827,2.792848008753788,2.1447610589527217,3.9560080889704965,5.300943312279429,4.207136793592526,2.5592967784139455,2.280350850198276,4.65,7.800000000000001,4.6000000000000005,15.65,28.1,17.7,6.550000000000001,5.2,5,
1.8708286933869707,2.958039891549808,2.3130067012440754,2.4596747752497685,3.605551275463989,3.5846896657869842,2.6362852652928135,2.4186773244895647,3.5,8.75,5.3500000000000005,6.050000000000001,13.0,12.850000000000001,6.95,5.8500000000000005,5,
1.9364916731037085,3.383784863137726,2.3130067012440754,3.6674241641784495,3.570714214271425,3.52845575287547,2.8809720581775866,2.6076809620810595,3.75,11.450000000000001,5.3500000000000005,13.450000000000001,12.75,12.450000000000001,8.3,6.800000000000001,5,
1.91049731745428,3.361547262794322,2.3979157616563596,3.4713109915419564,5.07444578254611,4.538722287164087,2.0976176963403033,1.8708286933869707,3.6500000000000004,11.3,5.75,12.05,25.75,20.6,4.4,3.5,5,
2.3345235059857505,3.278719262151,3.0413812651491097,1.7320508075688772,4.330127018922194,3.5425979167836705,2.449489742783178,2.6457513110645907,5.45,10.75,9.25,3.0,18.75,12.55,6.0,7.0,5,
1.9364916731037085,2.949576240750525,2.1095023109728985,2.598076211353316,4.5,3.872983346207417,2.0248456731316584,2.3874672772626644,3.75,8.700000000000001,4.45,6.75,20.25,15.0,4.1000000000000005,5.7,5,
5.761944116355173,8.899438184514796,2.6832815729997477,3.170173496829472,3.591656999213594,2.711088342345192,2.588435821108957,2.7748873851023217,33.2,79.2,7.2,10.05,12.9,7.3500000000000005,6.7,7.7,5,
4.012480529547776,4.135214625627067,2.32379000772445,2.692582403567252,4.043513323831146,2.8635642126552705,2.711088342345192,2.8460498941515415,16.1,17.1,5.4,7.25,16.35,8.200000000000001,7.3500000000000005,8.1,5,
1.70293863659264,2.355843797877949,1.8841443681416772,2.32379000772445,3.6945906403822333,3.492849839314596,2.8460498941515415,2.8284271247461903,2.9000000000000004,5.550000000000001,3.5500000000000003,5.4,13.65,12.200000000000001,8.1,8.0,5,
2.1563858652847827,4.201190307520001,1.9493588689617927,2.5787593916455256,2.7748873851023217,3.2015621187164243,2.711088342345192,2.80178514522438,4.65,17.650000000000002,3.8000000000000003,6.65,7.7,10.25,7.3500000000000005,7.8500000000000005,5,
14.411800720243116,8.261355820929152,2.598076211353316,2.073644135332772,3.7282703764614498,3.138470965295043,2.224859546128699,4.135214625627067,207.70000000000002,68.25,6.75,4.3,13.9,9.850000000000001,4.95,17.1,5,
2.04939015319192,2.932575659723036,2.3021728866442674,2.9410882339705484,4.376071297408213,3.1859064644147983,2.4698178070456938,2.6267851073127395,4.2,8.6,5.300000000000001,8.65,19.150000000000002,10.15,6.1000000000000005,6.9,5,
2.1908902300206643,2.6076809620810595,1.857417562100671,2.3130067012440754,3.024896692450835,2.6832815729997477,2.3130067012440754,2.4596747752497685,4.800000000000001,6.800000000000001,3.45,5.3500000000000005,9.15,7.2,5.3500000000000005,6.050000000000001,5,
2.179449471770337,2.5787593916455256,2.449489742783178,2.756809750418044,3.3241540277189325,3.361547262794322,2.3130067012440754,2.4899799195977463,4.75,6.65,6.0,7.6000000000000005,11.05,11.3,5.3500000000000005,6.2,5,
2.16794833886788,2.924038303442689,2.4596747752497685,2.958039891549808,4.330127018922194,3.9179076048319463,2.9748949561287032,2.819574435974337,4.7,8.55,6.050000000000001,8.75,18.75,15.350000000000001,8.85,7.95,5,
2.449489742783178,3.2939338184001206,1.9874606914351791,2.756809750418044,3.8794329482541645,3.2015621187164243,2.7202941017470885,3.0659419433511785,6.0,10.850000000000001,3.95,7.6000000000000005,15.05,10.25,7.4,9.4,5,
1.7748239349298849,3.0166206257996713,2.0976176963403033,3.248076353782343,4.743416490252569,3.930648801406709,3.1144823004794873,2.3664319132398464,3.1500000000000004,9.1,4.4,10.55,22.5,15.450000000000001,9.700000000000001,5.6000000000000005,5,
2.179449471770337,3.442382895611701,2.3130067012440754,3.5496478698597698,5.113707070218238,4.219004621945797,3.3541019662496847,2.5,4.75,11.850000000000001,5.3500000000000005,12.600000000000001,26.150000000000002,17.8,11.25,6.25,5,
1.4832396974191326,3.840572873934304,2.1908902300206643,3.7416573867739413,4.904079934095692,5.118593556827891,2.949576240750525,2.6076809620810595,2.2,14.75,4.800000000000001,14.0,24.05,26.200000000000003,8.700000000000001,6.800000000000001,5,
1.3601470508735443,3.248076353782343,2.2693611435820435,2.711088342345192,4.33589667773576,3.7282703764614498,3.3466401061363023,2.7294688127912363,1.85,10.55,5.15,7.3500000000000005,18.8,13.9,11.200000000000001,7.45,5,
1.760681686165901,3.0166206257996713,2.4186773244895647,2.7748873851023217,4.5,3.3241540277189325,2.8896366553599777,1.9748417658131499,3.1,9.1,5.8500000000000005,7.7,20.25,11.05,8.35,3.9000000000000004,5,
2.6645825188948455,2.819574435974337,2.7748873851023217,3.626292872893749,3.6606010435446255,2.3874672772626644,2.819574435974337,2.9154759474226504,7.1000000000000005,7.95,7.7,13.15,13.4,5.7,7.95,8.5,5,
2.5592967784139455,3.5,2.1330729007701543,3.7616485747608057,4.049691346263317,3.2015621187164243,3.1064449134018135,2.5199206336708304,6.550000000000001,12.25,4.55,14.15,16.400000000000002,10.25,9.65,6.3500000000000005,5,
2.1908902300206643,2.701851217221259,2.8722813232690143,3.286335345030997,4.06201920231798,3.4856850115866753,2.924038303442689,2.29128784747792,4.800000000000001,7.300000000000001,8.25,10.8,16.5,12.15,8.55,5.25,5,
1.7748239349298849,2.7658633371878665,2.179449471770337,3.3689761055846033,5.167204273105526,3.3541019662496847,2.3664319132398464,2.7838821814150108,3.1500000000000004,7.65,4.75,11.350000000000001,26.700000000000003,11.25,5.6000000000000005,7.75,5,
1.5652475842498528,3.930648801406709,2.32379000772445,3.82099463490856,4.780167361086848,3.7349698793966195,2.598076211353316,3.024896692450835,2.45,15.450000000000001,5.4,14.600000000000001,22.85,13.950000000000001,6.75,9.15,5,
1.449137674618944,3.1937438845342623,2.3021728866442674,4.06201920231798,5.2583267300539625,3.6193922141707713,1.9621416870348585,2.4596747752497685,2.1,10.200000000000001,5.300000000000001,16.5,27.650000000000002,13.100000000000001,3.85,6.050000000000001,5,
1.9748417658131499,3.3689761055846033,2.1095023109728985,2.8106938645110393,3.687817782917155,4.2130748865881795,3.0983866769659336,2.3130067012440754,3.9000000000000004,11.350000000000001,4.45,7.9,13.600000000000001,17.75,9.600000000000001,5.3500000000000005,5,
1.8841443681416772,2.3979157616563596,2.1213203435596424,3.840572873934304,4.631414470763764,3.7013511046643495,2.1908902300206643,2.1330729007701543,3.5500000000000003,5.75,4.5,14.75,21.450000000000003,13.700000000000001,4.800000000000001,4.55,5,
1.9874606914351791,2.8372521918222215,2.5592967784139455,3.0083217912982647,3.7416573867739413,3.7682887362833544,2.9154759474226504,2.7658633371878665,3.95,8.05,6.550000000000001,9.05,14.0,14.200000000000001,8.5,7.65,5,
1.746424919657298,2.29128784747792,1.746424919657298,2.8106938645110393,3.653765181289022,3.6674241641784495,2.345207879911715,2.6267851073127395,3.0500000000000003,5.25,3.0500000000000003,7.9,13.350000000000001,13.450000000000001,5.5,6.9,5,
2.32379000772445,3.521363372331802,1.857417562100671,3.146426544510455,4.873397172404482,4.295346318982906,2.3664319132398464,2.6645825188948455,5.4,12.4,3.45,9.9,23.75,18.45,5.6000000000000005,7.1000000000000005,5,
1.378404875209022,3.3763886032268267,2.179449471770337,3.1144823004794873,4.929503017546495,3.5637059362410923,1.8708286933869707,2.32379000772445,1.9000000000000001,11.4,4.75,9.700000000000001,24.3,12.700000000000001,3.5,5.4,5,
2.0124611797498106,3.398529093593286,2.0248456731316584,2.6457513110645907,4.39317652729776,3.9812058474788765,2.6551836094703507,2.258317958127243,4.05,11.55,4.1000000000000005,7.0,19.3,15.850000000000001,7.050000000000001,5.1000000000000005,5,
2.258317958127243,3.278719262151,1.8708286933869707,2.2135943621178655,3.7013511046643495,3.9496835316262997,2.345207879911715,2.6267851073127395,5.1000000000000005,10.75,3.5,4.9,13.700000000000001,15.600000000000001,5.5,6.9,5,
2.0976176963403033,2.701851217221259,2.1213203435596424,2.4289915602982237,3.8794329482541645,2.5787593916455256,1.9621416870348585,2.9832867780352594,4.4,7.300000000000001,4.5,5.9,15.05,6.65,3.85,8.9,5,
1.7748239349298849,4.201190307520001,2.280350850198276,3.122498999199199,3.63318042491699,4.092676385936225,2.8284271247461903,2.6645825188948455,3.1500000000000004,17.650000000000002,5.2,9.75,13.200000000000001,16.75,8.0,7.1000000000000005,5,
2.247220505424423,3.687817782917155,4.104875150354759,3.1622776601683795,2.9832867780352594,3.248076353782343,2.0976176963403033,2.0124611797498106,5.050000000000001,13.600000000000001,16.85,10.0,8.9,10.55,4.4,4.05,5,
1.816590212458495,3.1304951684997055,2.29128784747792,2.4083189157584592,3.248076353782343,3.6606010435446255,2.898275349237888,2.692582403567252,3.3000000000000003,9.8,5.25,5.800000000000001,10.55,13.4,8.4,7.25,5,
1.284523257866513,3.456877203488721,2.5592967784139455,2.7477263328068173,3.646916505762094,3.7549966711037173,3.1304951684997055,2.6076809620810595,1.6500000000000001,11.950000000000001,6.550000000000001,7.550000000000001,13.3,14.100000000000001,9.8,6.800000000000001,5,
2.449489742783178,3.271085446759225,2.3874672772626644,2.32379000772445,3.2093613071762426,3.7483329627982624,2.1213203435596424,2.539685019840059,6.0,10.700000000000001,5.7,5.4,10.3,14.05,4.5,6.45,5,
2.247220505424423,2.7477263328068173,1.9493588689617927,2.7658633371878665,3.8275318418009276,3.6742346141747673,2.711088342345192,2.3664319132398464,5.050000000000001,7.550000000000001,3.8000000000000003,7.65,14.65,13.5,7.3500000000000005,5.6000000000000005,5,
1.9235384061671346,3.1622776601683795,1.816590212458495,2.4083189157584592,4.701063709417263,3.9937451095431715,2.9068883707497264,2.598076211353316,3.7,10.0,3.3000000000000003,5.800000000000001,22.1,15.950000000000001,8.450000000000001,6.75,5,
2.16794833886788,2.6551836094703507,2.6362852652928135,3.170173496829472,3.5496478698597698,3.4132096331752027,2.6739483914241875,3.1144823004794873,4.7,7.050000000000001,6.95,10.05,12.600000000000001,11.65,7.15,9.700000000000001,5,
2.1095023109728985,2.8284271247461903,2.0615528128088303,2.6362852652928135,3.478505426185217,3.2939338184001206,2.4596747752497685,2.073644135332772,4.45,8.0,4.25,6.95,12.100000000000001,10.850000000000001,6.050000000000001,4.3,5,
2.1213203435596424,2.6551836094703507,2.16794833886788,2.7294688127912363,3.794733192202055,3.4351128074635335,3.0083217912982647,2.1447610589527217,4.5,7.050000000000001,4.7,7.45,14.4,11.8,9.05,4.6000000000000005,5,
2.1095023109728985,4.43846820423443,2.711088342345192,4.790615826801393,5.389805191284746,3.6674241641784495,2.7658633371878665,2.280350850198276,4.45,19.700000000000003,7.3500000000000005,22.950000000000003,29.05,13.450000000000001,7.65,5.2,5,
1.8973665961010275,3.872983346207417,2.073644135332772,2.7294688127912363,3.8275318418009276,3.556683848755748,2.8635642126552705,2.0615528128088303,3.6,15.0,4.3,7.45,14.65,12.65,8.200000000000001,4.25,5,
2.202271554554524,3.1304951684997055,2.3874672772626644,2.588435821108957,3.82099463490856,3.263433774416144,2.7386127875258306,2.258317958127243,4.8500000000000005,9.8,5.7,6.7,14.600000000000001,10.65,7.5,5.1000000000000005,5,
2.085665361461421,2.5099800796022267,1.816590212458495,3.681032463861192,4.8373546489791295,4.318564576337836,2.569046515733026,2.5495097567963922,4.3500000000000005,6.300000000000001,3.3000000000000003,13.55,23.400000000000002,18.650000000000002,6.6000000000000005,6.5,5,
1.9493588689617927,3.2171415884290826,2.0248456731316584,3.331666249791536,5.770615218501403,4.516635916254486,3.278719262151,2.3664319132398464,3.8000000000000003,10.350000000000001,4.1000000000000005,11.100000000000001,33.300000000000004,20.400000000000002,10.75,5.6000000000000005,5,
2.16794833886788,3.3763886032268267,1.760681686165901,2.3664319132398464,3.9179076048319463,3.138470965295043,2.5199206336708304,2.5298221281347035,4.7,11.4,3.1,5.6000000000000005,15.350000000000001,9.850000000000001,6.3500000000000005,6.4,5,
2.3021728866442674,3.0413812651491097,2.073644135332772,3.082207001484488,3.9749213828703582,4.919349550499537,2.5298221281347035,2.539685019840059,5.300000000000001,9.25,4.3,9.5,15.8,24.200000000000003,6.4,6.45,5,
2.23606797749979,2.6645825188948455,2.0124611797498106,2.7658633371878665,3.1543620591175006,3.3166247903554,2.2135943621178655,2.16794833886788,5.0,7.1000000000000005,4.05,7.65,9.950000000000001,11.0,4.9,4.7,5,
1.5,3.7080992435478315,2.0976176963403033,2.5787593916455256,3.3015148038438356,2.6645825188948455,2.4392621835300936,2.8635642126552705,2.25,13.75,4.4,6.65,10.9,7.1000000000000005,5.95,8.200000000000001,5,
2.280350850198276,3.427827300200522,2.949576240750525,2.5,3.8340579025361627,2.9832867780352594,1.9235384061671346,1.9235384061671346,5.2,11.75,8.700000000000001,6.25,14.700000000000001,8.9,3.7,3.7,5,
1.9364916731037085,3.2939338184001206,2.792848008753788,3.2093613071762426,3.4856850115866753,2.6551836094703507,2.4083189157584592,2.2135943621178655,3.75,10.850000000000001,7.800000000000001,10.3,12.15,7.050000000000001,5.800000000000001,4.9,5,
2.1908902300206643,2.9068883707497264,1.9493588689617927,2.6551836094703507,4.722287581247038,4.43846820423443,1.8303005217723127,2.3979157616563596,4.800000000000001,8.450000000000001,3.8000000000000003,7.050000000000001,22.3,19.700000000000003,3.35,5.75,5,
2.1908902300206643,3.427827300200522,2.7294688127912363,3.1144823004794873,4.398863489584555,2.7838821814150108,2.6832815729997477,2.711088342345192,4.800000000000001,11.75,7.45,9.700000000000001,19.35,7.75,7.2,7.3500000000000005,5,
2.202271554554524,3.271085446759225,2.4083189157584592,2.3664319132398464,4.110960958218893,3.478505426185217,2.7202941017470885,2.8372521918222215,4.8500000000000005,10.700000000000001,5.800000000000001,5.6000000000000005,16.900000000000002,12.100000000000001,7.4,8.05,5,
1.9874606914351791,3.5142566781611158,2.29128784747792,2.8460498941515415,3.263433774416144,3.3241540277189325,2.9916550603303182,2.3130067012440754,3.95,12.350000000000001,5.25,8.1,10.65,11.05,8.950000000000001,5.3500000000000005,5,
2.0,3.0413812651491097,2.3874672772626644,1.9235384061671346,3.248076353782343,2.7202941017470885,2.258317958127243,2.1447610589527217,4.0,9.25,5.7,3.7,10.55,7.4,5.1000000000000005,4.6000000000000005,5,
1.51657508881031,3.3015148038438356,1.9493588689617927,2.8284271247461903,4.1952353926806065,3.9937451095431715,2.1563858652847827,1.8708286933869707,2.3000000000000003,10.9,3.8000000000000003,8.0,17.6,15.950000000000001,4.65,3.5,5,
2.29128784747792,3.0495901363953815,2.4186773244895647,2.8635642126552705,4.2485291572496005,3.5425979167836705,2.23606797749979,2.1908902300206643,5.25,9.3,5.8500000000000005,8.200000000000001,18.05,12.55,5.0,4.800000000000001,5,
2.4289915602982237,2.6362852652928135,1.5968719422671311,2.3130067012440754,5.229722745997153,3.8987177379235853,3.1780497164141406,2.29128784747792,5.9,6.95,2.5500000000000003,5.3500000000000005,27.35,15.200000000000001,10.100000000000001,5.25,5,
2.247220505424423,2.8896366553599777,1.6733200530681511,2.9748949561287032,4.381780460041329,3.721558813185679,1.8841443681416772,2.3769728648009427,5.050000000000001,8.35,2.8000000000000003,8.85,19.200000000000003,13.850000000000001,3.5500000000000003,5.65,5,
1.8708286933869707,2.7294688127912363,2.3021728866442674,2.7202941017470885,3.8794329482541645,2.8284271247461903,1.7888543819998317,1.9235384061671346,3.5,7.45,5.300000000000001,7.4,15.05,8.0,3.2,3.7,5,
2.1908902300206643,3.3090784215548594,2.280350850198276,2.3979157616563596,3.9812058474788765,4.104875150354759,2.5199206336708304,2.224859546128699,4.800000000000001,10.950000000000001,5.2,5.75,15.850000000000001,16.85,6.3500000000000005,4.95,5,
2.073644135332772,2.8548204847240397,2.4899799195977463,2.5199206336708304,3.687817782917155,2.7294688127912363,2.355843797877949,2.701851217221259,4.3,8.15,6.2,6.3500000000000005,13.600000000000001,7.45,5.550000000000001,7.300000000000001,5,
2.073644135332772,2.792848008753788,2.1447610589527217,2.6267851073127395,3.653765181289022,2.5298221281347035,2.345207879911715,1.8973665961010275,4.3,7.800000000000001,4.6000000000000005,6.9,13.350000000000001,6.4,5.5,3.6,5,
1.9364916731037085,2.7838821814150108,2.692582403567252,1.816590212458495,3.478505426185217,2.80178514522438,2.7477263328068173,1.7175564037317668,3.75,7.75,7.25,3.3000000000000003,12.100000000000001,7.8500000000000005,7.550000000000001,2.95,5,
1.9874606914351791,2.7838821814150108,1.9621416870348585,2.0124611797498106,3.646916505762094,4.153311931459037,2.1908902300206643,2.32379000772445,3.95,7.75,3.85,4.05,13.3,17.25,4.800000000000001,5.4,5,
1.6733200530681511,3.556683848755748,2.539685019840059,2.3979157616563596,3.122498999199199,3.5355339059327378,2.9068883707497264,2.5787593916455256,2.8000000000000003,12.65,6.45,5.75,9.75,12.5,8.450000000000001,6.65,5,
1.7888543819998317,2.3979157616563596,2.179449471770337,2.3345235059857505,2.8460498941515415,2.1908902300206643,2.0124611797498106,2.0248456731316584,3.2,5.75,4.75,5.45,8.1,4.800000000000001,4.05,4.1000000000000005,5,
1.7175564037317668,2.6551836094703507,2.449489742783178,2.932575659723036,3.7080992435478315,3.96232255123179,2.179449471770337,1.91049731745428,2.95,7.050000000000001,6.0,8.6,13.75,15.700000000000001,4.75,3.6500000000000004,5,
1.816590212458495,2.8460498941515415,1.6733200530681511,3.2939338184001206,3.3090784215548594,3.3241540277189325,2.7202941017470885,2.085665361461421,3.3000000000000003,8.1,2.8000000000000003,10.850000000000001,10.950000000000001,11.05,7.4,4.3500000000000005,5,
2.32379000772445,2.8896366553599777,2.280350850198276,2.5,3.640054944640259,3.6193922141707713,2.6172504656604803,2.280350850198276,5.4,8.35,5.2,6.25,13.25,13.100000000000001,6.8500000000000005,5.2,5,
2.3979157616563596,2.23606797749979,2.2693611435820435,3.361547262794322,3.82099463490856,3.0740852297878796,2.179449471770337,2.598076211353316,5.75,5.0,5.15,11.3,14.600000000000001,9.450000000000001,4.75,6.75,5,
1.7748239349298849,2.5298221281347035,2.4289915602982237,2.4899799195977463,3.847076812334269,3.605551275463989,2.6739483914241875,1.9493588689617927,3.1500000000000004,6.4,5.9,6.2,14.8,13.0,7.15,3.8000000000000003,5,
2.1563858652847827,2.7294688127912363,2.1908902300206643,2.756809750418044,3.3689761055846033,2.819574435974337,2.7386127875258306,2.1908902300206643,4.65,7.45,4.800000000000001,7.6000000000000005,11.350000000000001,7.95,7.5,4.800000000000001,5,
1.746424919657298,2.7477263328068173,1.9621416870348585,2.6739483914241875,4.410215414239989,4.236744032862972,3.4713109915419564,2.0615528128088303,3.0500000000000003,7.550000000000001,3.85,7.15,19.450000000000003,17.95,12.05,4.25,5,
2.0976176963403033,3.278719262151,2.085665361461421,2.085665361461421,3.420526275297414,4.159326868617084,2.085665361461421,2.355843797877949,4.4,10.75,4.3500000000000005,4.3500000000000005,11.700000000000001,17.3,4.3500000000000005,5.550000000000001,5,
2.5099800796022267,3.278719262151,2.0,2.8635642126552705,3.271085446759225,3.2015621187164243,2.1908902300206643,2.4596747752497685,6.300000000000001,10.75,4.0,8.200000000000001,10.700000000000001,10.25,4.800000000000001,6.050000000000001,5,
2.0248456731316584,3.122498999199199,2.479919353527449,2.7202941017470885,4.847679857416329,4.883646178829912,2.958039891549808,2.5099800796022267,4.1000000000000005,9.75,6.15,7.4,23.5,23.85,8.75,6.300000000000001,5,
1.5652475842498528,3.170173496829472,2.0976176963403033,2.5495097567963922,3.605551275463989,3.5496478698597698,2.958039891549808,1.816590212458495,2.45,10.05,4.4,6.5,13.0,12.600000000000001,8.75,3.3000000000000003,5,
1.51657508881031,2.6267851073127395,2.3664319132398464,2.32379000772445,3.398529093593286,3.1859064644147983,2.202271554554524,2.4289915602982237,2.3000000000000003,6.9,5.6000000000000005,5.4,11.55,10.15,4.8500000000000005,5.9,5,
2.258317958127243,3.478505426185217,2.8106938645110393,2.247220505424423,4.266145801540309,2.8635642126552705,2.6172504656604803,2.5298221281347035,5.1000000000000005,12.100000000000001,7.9,5.050000000000001,18.2,8.200000000000001,6.8500000000000005,6.4,5,
2.1330729007701543,4.006245124802026,2.5787593916455256,3.0166206257996713,5.403702434442518,4.370354676682432,2.7202941017470885,2.224859546128699,4.55,16.05,6.65,9.1,29.200000000000003,19.1,7.4,4.95,5,
1.6583123951777,4.129164564412516,2.588435821108957,1.9874606914351791,2.9748949561287032,3.0413812651491097,1.816590212458495,2.6457513110645907,2.75,17.05,6.7,3.95,8.85,9.25,3.3000000000000003,7.0,5,
2.7386127875258306,3.6193922141707713,2.32379000772445,3.082207001484488,4.674398357008098,4.201190307520001,2.4698178070456938,2.6172504656604803,7.5,13.100000000000001,5.4,9.5,21.85,17.650000000000002,6.1000000000000005,6.8500000000000005,5,
2.1213203435596424,3.794733192202055,1.3416407864998738,3.255764119219941,2.6739483914241875,3.2171415884290826,2.6832815729997477,2.2135943621178655,4.5,14.4,1.8,10.600000000000001,7.15,10.350000000000001,7.2,4.9,5,
1.4832396974191326,3.1937438845342623,2.3979157616563596,2.5199206336708304,4.347413023856832,3.138470965295043,2.5592967784139455,2.6172504656604803,2.2,10.200000000000001,5.75,6.3500000000000005,18.900000000000002,9.850000000000001,6.550000000000001,6.8500000000000005,5,
2.345207879911715,3.82099463490856,2.3664319132398464,2.32379000772445,3.8013155617496426,3.521363372331802,1.9748417658131499,2.0,5.5,14.600000000000001,5.6000000000000005,5.4,14.450000000000001,12.4,3.9000000000000004,4.0,5,
2.3345235059857505,3.6674241641784495,2.0124611797498106,2.3021728866442674,3.0659419433511785,2.8460498941515415,2.3345235059857505,2.8548204847240397,5.45,13.450000000000001,4.05,5.300000000000001,9.4,8.1,5.45,8.15,5,
2.0615528128088303,3.626292872893749,2.0248456731316584,2.4083189157584592,3.0903074280724887,3.478505426185217,2.32379000772445,2.4596747752497685,4.25,13.15,4.1000000000000005,5.800000000000001,9.55,12.100000000000001,5.4,6.050000000000001,5,
2.1095023109728985,3.0983866769659336,1.8439088914585775,3.1937438845342623,4.636809247747852,3.3015148038438356,2.6739483914241875,2.5592967784139455,4.45,9.600000000000001,3.4000000000000004,10.200000000000001,21.5,10.9,7.15,6.550000000000001,5,
1.7748239349298849,3.492849839314596,1.760681686165901,2.819574435974337,4.421538193886829,3.456877203488721,2.4392621835300936,1.7175564037317668,3.1500000000000004,12.200000000000001,3.1,7.95,19.55,11.950000000000001,5.95,2.95,5,
2.3021728866442674,3.7616485747608057,1.6733200530681511,2.5298221281347035,4.012480529547776,3.1543620591175006,2.5495097567963922,2.3021728866442674,5.300000000000001,14.15,2.8000000000000003,6.4,16.1,9.950000000000001,6.5,5.300000000000001,5,
2.588435821108957,2.9664793948382653,2.04939015319192,2.588435821108957,3.2939338184001206,3.146426544510455,2.5592967784139455,3.024896692450835,6.7,8.8,4.2,6.7,10.850000000000001,9.9,6.550000000000001,9.15,5,
2.0,2.0124611797498106,2.224859546128699,3.605551275463989,3.721558813185679,3.024896692450835,3.2093613071762426,2.5787593916455256,4.0,4.05,4.95,13.0,13.850000000000001,9.15,10.3,6.65,5,
2.073644135332772,2.6739483914241875,2.4186773244895647,3.40587727318528,3.1780497164141406,3.714835124201342,2.6267851073127395,2.8372521918222215,4.3,7.15,5.8500000000000005,11.600000000000001,10.100000000000001,13.8,6.9,8.05,5,
2.3769728648009427,3.591656999213594,2.0976176963403033,2.598076211353316,3.456877203488721,3.591656999213594,3.146426544510455,2.8548204847240397,5.65,12.9,4.4,6.75,11.950000000000001,12.9,9.9,8.15,5,
1.70293863659264,3.5,1.6733200530681511,2.1908902300206643,2.569046515733026,2.5787593916455256,2.345207879911715,2.9832867780352594,2.9000000000000004,12.25,2.8000000000000003,4.800000000000001,6.6000000000000005,6.65,5.5,8.9,5,
1.5811388300841898,2.8548204847240397,2.1330729007701543,2.1213203435596424,3.8340579025361627,3.872983346207417,2.9748949561287032,2.6551836094703507,2.5,8.15,4.55,4.5,14.700000000000001,15.0,8.85,7.050000000000001,5,
2.0248456731316584,3.398529093593286,2.0371548787463363,3.449637662132068,5.014977567247933,3.8340579025361627,2.073644135332772,1.91049731745428,4.1000000000000005,11.55,4.15,11.9,25.150000000000002,14.700000000000001,4.3,3.6500000000000004,5,
2.588435821108957,3.1304951684997055,2.0976176963403033,2.3130067012440754,4.207136793592526,3.1937438845342623,1.7320508075688772,2.711088342345192,6.7,9.8,4.4,5.3500000000000005,17.7,10.200000000000001,3.0,7.3500000000000005,5,
1.91049731745428,2.932575659723036,2.224859546128699,3.640054944640259,4.230839160261236,3.7616485747608057,2.355843797877949,2.4899799195977463,3.6500000000000004,8.6,4.95,13.25,17.900000000000002,14.15,5.550000000000001,6.2,5,
1.6278820596099706,3.987480407475377,2.6832815729997477,2.16794833886788,2.819574435974337,2.9916550603303182,1.466287829861518,2.0,2.6500000000000004,15.9,7.2,4.7,7.95,8.950000000000001,2.15,4.0,5,
1.5968719422671311,3.6606010435446255,2.598076211353316,2.539685019840059,2.8284271247461903,3.263433774416144,1.9874606914351791,2.9410882339705484,2.5500000000000003,13.4,6.75,6.45,8.0,10.65,3.95,8.65,5,
2.29128784747792,4.177319714841085,2.479919353527449,2.247220505424423,2.9748949561287032,3.442382895611701,2.569046515733026,3.0659419433511785,5.25,17.45,6.15,5.050000000000001,8.85,11.850000000000001,6.6000000000000005,9.4,5,
1.7320508075688772,4.159326868617084,2.6267851073127395,2.4392621835300936,3.427827300200522,3.924283374069717,2.1330729007701543,2.9068883707497264,3.0,17.3,6.9,5.95,11.75,15.4,4.55,8.450000000000001,5,
1.6431676725154984,3.1859064644147983,2.701851217221259,2.711088342345192,3.905124837953327,3.840572873934304,2.4289915602982237,2.4698178070456938,2.7,10.15,7.300000000000001,7.3500000000000005,15.25,14.75,5.9,6.1000000000000005,5,
1.9874606914351791,3.6742346141747673,2.4083189157584592,2.0124611797498106,3.8987177379235853,3.0983866769659336,2.3769728648009427,2.0976176963403033,3.95,13.5,5.800000000000001,4.05,15.200000000000001,9.600000000000001,5.65,4.4,5,
2.5199206336708304,4.538722287164087,2.355843797877949,3.3391615714128,4.024922359499621,4.110960958218893,3.24037034920393,2.7658633371878665,6.3500000000000005,20.6,5.550000000000001,11.15,16.2,16.900000000000002,10.5,7.65,5,
1.6431676725154984,4.527692569068709,2.7658633371878665,2.9832867780352594,4.370354676682432,3.478505426185217,2.6267851073127395,2.3874672772626644,2.7,20.5,7.65,8.9,19.1,12.100000000000001,6.9,5.7,5,
1.857417562100671,3.687817782917155,1.466287829861518,2.1095023109728985,4.69041575982343,3.2939338184001206,2.4083189157584592,2.711088342345192,3.45,13.600000000000001,2.15,4.45,22.0,10.850000000000001,5.800000000000001,7.3500000000000005,5,
2.280350850198276,3.7616485747608057,2.224859546128699,3.0083217912982647,4.598912915026768,4.2485291572496005,2.6645825188948455,3.122498999199199,5.2,14.15,4.95,9.05,21.150000000000002,18.05,7.1000000000000005,9.75,5,
2.3130067012440754,4.544227107000705,2.924038303442689,3.024896692450835,6.248999919987197,4.626013402488151,3.605551275463989,3.0166206257996713,5.3500000000000005,20.650000000000002,8.55,9.15,39.050000000000004,21.400000000000002,13.0,9.1,5,
1.8841443681416772,4.183300132670378,1.8027756377319946,2.1330729007701543,4.312771730569565,3.2015621187164243,2.3979157616563596,2.756809750418044,3.5500000000000003,17.5,3.25,4.55,18.6,10.25,5.75,7.6000000000000005,5,
2.1908902300206643,3.4351128074635335,2.202271554554524,3.383784863137726,4.711687595755898,4.165333119931706,3.5142566781611158,3.0740852297878796,4.800000000000001,11.8,4.8500000000000005,11.450000000000001,22.200000000000003,17.35,12.350000000000001,9.450000000000001,5,
2.479919353527449,3.866522985836241,1.857417562100671,2.756809750418044,4.6097722286464435,3.5846896657869842,2.8896366553599777,3.0659419433511785,6.15,14.950000000000001,3.45,7.6000000000000005,21.25,12.850000000000001,8.35,9.4,5,
1.9874606914351791,4.312771730569565,2.1095023109728985,2.4186773244895647,4.153311931459037,3.1780497164141406,2.345207879911715,2.6457513110645907,3.95,18.6,4.45,5.8500000000000005,17.25,10.100000000000001,5.5,7.0,5,
2.0976176963403033,3.9496835316262997,2.6267851073127395,2.8106938645110393,4.183300132670378,2.949576240750525,2.5592967784139455,3.3391615714128,4.4,15.600000000000001,6.9,7.9,17.5,8.700000000000001,6.550000000000001,11.15,5,
2.280350850198276,3.442382895611701,2.819574435974337,2.9832867780352594,3.5425979167836705,3.6945906403822333,2.0,2.9832867780352594,5.2,11.850000000000001,7.95,8.9,12.55,13.65,4.0,8.9,5,
2.224859546128699,4.018706259482023,1.816590212458495,2.5199206336708304,3.774917217635375,2.7386127875258306,2.6551836094703507,2.3664319132398464,4.95,16.150000000000002,3.3000000000000003,6.3500000000000005,14.25,7.5,7.050000000000001,5.6000000000000005,5,
2.0615528128088303,3.3166247903554,2.280350850198276,2.29128784747792,4.727578661429125,3.2171415884290826,2.355843797877949,2.355843797877949,4.25,11.0,5.2,5.25,22.35,10.350000000000001,5.550000000000001,5.550000000000001,5,
2.0124611797498106,3.255764119219941,2.5,2.1447610589527217,2.8896366553599777,3.7282703764614498,2.5495097567963922,2.2135943621178655,4.05,10.600000000000001,6.25,4.6000000000000005,8.35,13.9,6.5,4.9,5,
2.073644135332772,3.6124783736376886,2.4392621835300936,3.22490309931942,3.626292872893749,3.840572873934304,3.52845575287547,2.4289915602982237,4.3,13.05,5.95,10.4,13.15,14.75,12.450000000000001,5.9,5,
2.04939015319192,3.3090784215548594,2.4392621835300936,2.6076809620810595,4.522167621838006,4.959838707054898,2.6076809620810595,2.6645825188948455,4.2,10.950000000000001,5.95,6.800000000000001,20.450000000000003,24.6,6.800000000000001,7.1000000000000005,5,
1.91049731745428,3.1780497164141406,2.8896366553599777,2.6172504656604803,4.05585995813465,3.8144462245521304,2.7748873851023217,2.7748873851023217,3.6500000000000004,10.100000000000001,8.35,6.8500000000000005,16.45,14.55,7.7,7.7,5,
2.449489742783178,2.4083189157584592,1.9235384061671346,2.5592967784139455,5.029910535983717,3.9560080889704965,2.0976176963403033,2.4186773244895647,6.0,5.800000000000001,3.7,6.550000000000001,25.3,15.65,4.4,5.8500000000000005,5,
2.3979157616563596,2.6551836094703507,2.5495097567963922,2.5199206336708304,3.4641016151377544,2.6832815729997477,2.345207879911715,2.3769728648009427,5.75,7.050000000000001,6.5,6.3500000000000005,12.0,7.2,5.5,5.65,5,
2.0248456731316584,2.569046515733026,2.224859546128699,3.4132096331752027,4.674398357008098,3.3689761055846033,2.7838821814150108,2.5495097567963922,4.1000000000000005,6.6000000000000005,4.95,11.65,21.85,11.350000000000001,7.75,6.5,5,
2.3345235059857505,2.7748873851023217,3.1304951684997055,2.5495097567963922,4.743416490252569,3.146426544510455,2.3874672772626644,3.248076353782343,5.45,7.7,9.8,6.5,22.5,9.9,5.7,10.55,5,
1.6431676725154984,2.5099800796022267,2.2135943621178655,2.5298221281347035,3.478505426185217,2.539685019840059,2.9916550603303182,1.760681686165901,2.7,6.300000000000001,4.9,6.4,12.100000000000001,6.45,8.950000000000001,3.1,5,
2.04939015319192,2.7294688127912363,1.6431676725154984,2.7294688127912363,5.079370039680118,3.2093613071762426,2.6832815729997477,1.9235384061671346,4.2,7.45,2.7,7.45,25.8,10.3,7.2,3.7,5,
1.7748239349298849,2.756809750418044,3.146426544510455,3.788139384975162,7.151922818375489,5.594640292279746,3.1304951684997055,2.224859546128699,3.1500000000000004,7.6000000000000005,9.9,14.350000000000001,51.150000000000006,31.3,9.8,4.95,5,
1.8027756377319946,2.588435821108957,1.8973665961010275,2.5099800796022267,3.570714214271425,2.8896366553599777,2.701851217221259,2.073644135332772,3.25,6.7,3.6,6.300000000000001,12.75,8.35,7.300000000000001,4.3,5,
2.085665361461421,3.0495901363953815,2.6645825188948455,2.9068883707497264,3.8858718455450894,3.391164991562634,2.345207879911715,3.4713109915419564,4.3500000000000005,9.3,7.1000000000000005,8.450000000000001,15.100000000000001,11.5,5.5,12.05,5,
2.202271554554524,2.8460498941515415,2.1330729007701543,3.057776970284131,3.2015621187164243,2.8635642126552705,3.024896692450835,3.1064449134018135,4.8500000000000005,8.1,4.55,9.35,10.25,8.200000000000001,9.15,9.65,5,
2.0976176963403033,3.8013155617496426,2.6457513110645907,2.2693611435820435,3.7815340802378077,3.138470965295043,2.4899799195977463,2.4392621835300936,4.4,14.450000000000001,7.0,5.15,14.3,9.850000000000001,6.2,5.95,5,
1.7888543819998317,3.5637059362410923,2.073644135332772,3.1780497164141406,5.504543577809154,4.364630568559039,2.958039891549808,2.4186773244895647,3.2,12.700000000000001,4.3,10.100000000000001,30.3,19.05,8.75,5.8500000000000005,5,
2.0615528128088303,4.3531597719357835,2.4186773244895647,2.479919353527449,4.685082710048992,3.0659419433511785,2.6172504656604803,3.082207001484488,4.25,18.95,5.8500000000000005,6.15,21.950000000000003,9.4,6.8500000000000005,9.5,5,
2.3874672772626644,3.4856850115866753,2.449489742783178,2.819574435974337,2.588435821108957,2.449489742783178,1.5652475842498528,2.4392621835300936,5.7,12.15,6.0,7.95,6.7,6.0,2.45,5.95,5,
1.9621416870348585,3.1543620591175006,1.760681686165901,2.6739483914241875,2.898275349237888,2.6172504656604803,2.819574435974337,2.3021728866442674,3.85,9.950000000000001,3.1,7.15,8.4,6.8500000000000005,7.95,5.300000000000001,5,
2.1330729007701543,5.894913061275798,2.9916550603303182,2.80178514522438,2.9664793948382653,2.9068883707497264,2.9068883707497264,3.0903074280724887,4.55,34.75,8.950000000000001,7.8500000000000005,8.8,8.450000000000001,8.450000000000001,9.55,5,
2.2135943621178655,2.949576240750525,1.9874606914351791,2.0,3.598610843089316,3.3166247903554,2.8106938645110393,2.9410882339705484,4.9,8.700000000000001,3.95,4.0,12.950000000000001,11.0,7.9,8.65,5,
1.91049731745428,3.1304951684997055,2.280350850198276,3.9560080889704965,3.3241540277189325,3.0413812651491097,3.138470965295043,3.0413812651491097,3.6500000000000004,9.8,5.2,15.65,11.05,9.25,9.850000000000001,9.25,5,
1.70293863659264,2.9832867780352594,2.5199206336708304,2.32379000772445,3.8987177379235853,2.9068883707497264,2.4083189157584592,3.1064449134018135,2.9000000000000004,8.9,6.3500000000000005,5.4,15.200000000000001,8.450000000000001,5.800000000000001,9.65,5,
2.3769728648009427,3.774917217635375,2.355843797877949,3.122498999199199,5.630275304103699,4.324349662087931,2.9068883707497264,2.792848008753788,5.65,14.25,5.550000000000001,9.75,31.700000000000003,18.7,8.450000000000001,7.800000000000001,5,
2.1563858652847827,4.080441152620633,2.224859546128699,2.4596747752497685,4.0743097574926725,3.024896692450835,3.456877203488721,3.361547262794322,4.65,16.650000000000002,4.95,6.050000000000001,16.6,9.15,11.950000000000001,11.3,5,
3.0903074280724887,9.027735042633894,3.0495901363953815,2.924038303442689,3.0413812651491097,2.449489742783178,2.29128784747792,2.355843797877949,9.55,81.5,9.3,8.55,9.25,6.0,5.25,5.550000000000001,5,
4.242640687119285,16.261918705983007,10.917875251164945,3.271085446759225,5.157518783291051,3.271085446759225,2.7658633371878665,2.449489742783178,18.0,264.45,119.2,10.700000000000001,26.6,10.700000000000001,7.65,6.0,5,
2.0976176963403033,3.7282703764614498,2.3345235059857505,2.958039891549808,3.4641016151377544,2.5592967784139455,1.8973665961010275,2.9832867780352594,4.4,13.9,5.45,8.75,12.0,6.550000000000001,3.6,8.9,5,
2.2135943621178655,5.07444578254611,1.760681686165901,3.1859064644147983,4.893873721296862,3.9370039370059056,2.756809750418044,2.924038303442689,4.9,25.75,3.1,10.15,23.950000000000003,15.5,7.6000000000000005,8.55,5,
2.569046515733026,5.371219600798314,3.1304951684997055,3.1937438845342623,3.598610843089316,3.1543620591175006,3.1622776601683795,3.22490309931942,6.6000000000000005,28.85,9.8,10.200000000000001,12.950000000000001,9.950000000000001,10.0,10.4,5,
3.0495901363953815,8.411301920630361,3.840572873934304,2.692582403567252,3.847076812334269,3.5142566781611158,2.8548204847240397,3.22490309931942,9.3,70.75,14.75,7.25,14.8,12.350000000000001,8.15,10.4,5,
2.073644135332772,3.442382895611701,1.8841443681416772,2.4596747752497685,4.5,2.949576240750525,1.9874606914351791,3.2939338184001206,4.3,11.850000000000001,3.5500000000000003,6.050000000000001,20.25,8.700000000000001,3.95,10.850000000000001,5,
2.32379000772445,4.09878030638384,2.539685019840059,2.8372521918222215,3.52845575287547,2.280350850198276,2.6172504656604803,3.9812058474788765,5.4,16.8,6.45,8.05,12.450000000000001,5.2,6.8500000000000005,15.850000000000001,5,
2.0976176963403033,3.7349698793966195,1.8708286933869707,2.0248456731316584,3.3541019662496847,2.32379000772445,2.1447610589527217,3.146426544510455,4.4,13.950000000000001,3.5,4.1000000000000005,11.25,5.4,4.6000000000000005,9.9,5,
2.6172504656604803,3.0495901363953815,2.6267851073127395,2.0248456731316584,4.669047011971501,3.2326459750489227,2.5787593916455256,3.3466401061363023,6.8500000000000005,9.3,6.9,4.1000000000000005,21.8,10.450000000000001,6.65,11.200000000000001,5,
1.9621416870348585,3.5777087639996634,2.5298221281347035,3.331666249791536,3.653765181289022,2.6645825188948455,2.3979157616563596,2.756809750418044,3.85,12.8,6.4,11.100000000000001,13.350000000000001,7.1000000000000005,5.75,7.6000000000000005,5,
2.073644135332772,3.391164991562634,1.9748417658131499,2.9154759474226504,3.5071355833500366,3.0983866769659336,3.4132096331752027,3.0659419433511785,4.3,11.5,3.9000000000000004,8.5,12.3,9.600000000000001,11.65,9.4,5,
2.4698178070456938,3.2171415884290826,2.4186773244895647,2.0371548787463363,3.255764119219941,1.91049731745428,2.3345235059857505,3.8535697735995385,6.1000000000000005,10.350000000000001,5.8500000000000005,4.15,10.600000000000001,3.6500000000000004,5.45,14.850000000000001,5,
1.6583123951777,2.949576240750525,2.8106938645110393,2.924038303442689,4.527692569068709,3.6606010435446255,2.4698178070456938,2.224859546128699,2.75,8.700000000000001,7.9,8.55,20.5,13.4,6.1000000000000005,4.95,5,
2.04939015319192,2.449489742783178,2.04939015319192,2.4289915602982237,3.6674241641784495,2.4392621835300936,1.8027756377319946,2.3979157616563596,4.2,6.0,4.2,5.9,13.450000000000001,5.95,3.25,5.75,5,
2.3130067012440754,3.7815340802378077,2.0,2.3345235059857505,3.4641016151377544,3.626292872893749,2.588435821108957,2.7838821814150108,5.3500000000000005,14.3,4.0,5.45,12.0,13.15,6.7,7.75,5,
1.466287829861518,2.692582403567252,1.8439088914585775,2.4698178070456938,3.521363372331802,3.1304951684997055,3.3166247903554,3.122498999199199,2.15,7.25,3.4000000000000004,6.1000000000000005,12.4,9.8,11.0,9.75,5,
2.085665361461421,3.714835124201342,2.179449471770337,2.6645825188948455,4.924428900898052,3.8987177379235853,2.8460498941515415,2.569046515733026,4.3500000000000005,13.8,4.75,7.1000000000000005,24.25,15.200000000000001,8.1,6.6000000000000005,5,
2.0124611797498106,2.5199206336708304,2.3874672772626644,3.0740852297878796,3.521363372331802,3.3166247903554,2.9068883707497264,2.5199206336708304,4.05,6.3500000000000005,5.7,9.450000000000001,12.4,11.0,8.450000000000001,6.3500000000000005,5,
2.4083189157584592,2.6172504656604803,2.355843797877949,2.085665361461421,3.943348830626071,3.2939338184001206,2.711088342345192,2.8809720581775866,5.800000000000001,6.8500000000000005,5.550000000000001,4.3500000000000005,15.55,10.850000000000001,7.3500000000000005,8.3,5,
1.4832396974191326,3.255764119219941,2.6362852652928135,3.1780497164141406,3.9179076048319463,3.1064449134018135,2.2693611435820435,2.2135943621178655,2.2,10.600000000000001,6.95,10.100000000000001,15.350000000000001,9.65,5.15,4.9,5,
2.479919353527449,2.3874672772626644,1.9621416870348585,3.3541019662496847,4.811444689487764,3.605551275463989,2.7294688127912363,2.8548204847240397,6.15,5.7,3.85,11.25,23.150000000000002,13.0,7.45,8.15,5,
2.0371548787463363,2.701851217221259,2.8722813232690143,3.248076353782343,3.0413812651491097,2.9916550603303182,2.7658633371878665,2.7838821814150108,4.15,7.300000000000001,8.25,10.55,9.25,8.950000000000001,7.65,7.75,5,
1.746424919657298,2.8460498941515415,2.247220505424423,2.4083189157584592,4.9899899799498595,4.370354676682432,2.355843797877949,2.8548204847240397,3.0500000000000003,8.1,5.050000000000001,5.800000000000001,24.900000000000002,19.1,5.550000000000001,8.15,5,
2.598076211353316,3.286335345030997,2.5,2.3021728866442674,3.9812058474788765,2.8284271247461903,2.9664793948382653,2.7838821814150108,6.75,10.8,6.25,5.300000000000001,15.850000000000001,8.0,8.8,7.75,5,
2.4392621835300936,3.449637662132068,1.8841443681416772,2.7748873851023217,3.5496478698597698,2.9410882339705484,2.23606797749979,2.479919353527449,5.95,11.9,3.5500000000000003,7.7,12.600000000000001,8.65,5.0,6.15,5,
2.3021728866442674,3.3391615714128,2.1563858652847827,3.0413812651491097,3.057776970284131,3.7483329627982624,2.7477263328068173,2.6832815729997477,5.300000000000001,11.15,4.65,9.25,9.35,14.05,7.550000000000001,7.2,5,
2.1908902300206643,3.598610843089316,3.122498999199199,3.5,5.621387729022079,4.08656334834051,2.6267851073127395,2.345207879911715,4.800000000000001,12.950000000000001,9.75,12.25,31.6,16.7,6.9,5.5,5,
2.0,3.1780497164141406,2.4698178070456938,2.9068883707497264,5.305657357952923,3.7416573867739413,2.449489742783178,2.588435821108957,4.0,10.100000000000001,6.1000000000000005,8.450000000000001,28.150000000000002,14.0,6.0,6.7,5,
1.8841443681416772,3.138470965295043,2.5099800796022267,3.9560080889704965,4.852834223420372,4.165333119931706,3.2093613071762426,2.6172504656604803,3.5500000000000003,9.850000000000001,6.300000000000001,15.65,23.55,17.35,10.3,6.8500000000000005,5,
1.746424919657298,2.4289915602982237,1.5,2.701851217221259,2.9154759474226504,3.271085446759225,2.355843797877949,2.3345235059857505,3.0500000000000003,5.9,2.25,7.300000000000001,8.5,10.700000000000001,5.550000000000001,5.45,5,
2.5099800796022267,3.4351128074635335,2.3130067012440754,2.3769728648009427,4.306971093471606,3.521363372331802,2.569046515733026,2.3021728866442674,6.300000000000001,11.8,5.3500000000000005,5.65,18.55,12.4,6.6000000000000005,5.300000000000001,5,
2.4186773244895647,3.255764119219941,2.1447610589527217,2.7202941017470885,4.080441152620633,3.361547262794322,2.224859546128699,2.3130067012440754,5.8500000000000005,10.600000000000001,4.6000000000000005,7.4,16.650000000000002,11.3,4.95,5.3500000000000005,5,
2.4289915602982237,3.1780497164141406,2.898275349237888,3.0413812651491097,4.306971093471606,3.0166206257996713,2.3021728866442674,2.7386127875258306,5.9,10.100000000000001,8.4,9.25,18.55,9.1,5.300000000000001,7.5,5,
1.9235384061671346,3.6606010435446255,2.1908902300206643,3.248076353782343,6.012487006222965,5.527205442174192,3.3015148038438356,2.898275349237888,3.7,13.4,4.800000000000001,10.55,36.15,30.55,10.9,8.4,5,
2.0976176963403033,3.3689761055846033,1.6733200530681511,2.0976176963403033,3.640054944640259,3.687817782917155,2.3874672772626644,1.9874606914351791,4.4,11.350000000000001,2.8000000000000003,4.4,13.25,13.600000000000001,5.7,3.95,5,
2.3664319132398464,3.0659419433511785,2.073644135332772,2.711088342345192,4.33589667773576,4.018706259482023,2.3769728648009427,2.2135943621178655,5.6000000000000005,9.4,4.3,7.3500000000000005,18.8,16.150000000000002,5.65,4.9,5,
1.8973665961010275,2.3874672772626644,2.4186773244895647,3.024896692450835,5.191338940966964,4.427188724235731,2.5,2.4289915602982237,3.6,5.7,5.8500000000000005,9.15,26.950000000000003,19.6,6.25,5.9,5,
2.4392621835300936,3.3689761055846033,2.8635642126552705,3.6124783736376886,5.852349955359813,5.296225070746145,3.442382895611701,3.331666249791536,5.95,11.350000000000001,8.200000000000001,13.05,34.25,28.05,11.850000000000001,11.100000000000001,5,
1.9493588689617927,3.122498999199199,2.3979157616563596,2.479919353527449,4.522167621838006,3.3090784215548594,2.8106938645110393,3.398529093593286,3.8000000000000003,9.75,5.75,6.15,20.450000000000003,10.950000000000001,7.9,11.55,5,
