1,2,3,4,5,6,7,8,9,10,11,12,13,14,15,16,17,Average
9.874208829065749,17.889941307897015,33.85705244110893,15.918542646863123,11.791946404220129,8.947066558375433,6.957010852370434,7.395944834840239,97.5,320.05,1146.3,253.4,139.05,80.05000000000001,48.400000000000006,54.7,1,31.764715084275494
13.05947931580735,22.13029597633073,66.14075899171404,37.1685350800916,15.451537140362444,11.844830095868831,8.910667763978186,10.865081684000355,170.55,489.75,4374.6,1381.5,238.75,140.3,79.4,118.05000000000001,1,49.99890571641148
7.726577508832744,12.917043005270207,37.69748002187944,22.978250586152114,9.486832980505138,7.368853370776216,5.787918451395113,6.4031242374328485,59.7,166.85000000000002,1421.1000000000001,528.0,90.0,54.300000000000004,33.5,41.0,1,51.91911950679673
8.907861696277058,15.890248582070704,45.81539042723526,21.513948963405117,11.397368117245314,9.115920140062657,8.803408430829505,9.252026804976301,79.35000000000001,252.5,2099.05,462.85,129.9,83.10000000000001,77.5,85.60000000000001,1,41.75643522455735
18.145247311624054,13.756816492197604,44.25550813175689,24.42949037536395,9.848857801796104,9.038805230781334,9.085703054799886,7.19027120489902,329.25,189.25,1958.5500000000002,596.8000000000001,97.0,81.7,82.55000000000001,51.7,1,45.03544927949608
17.25977983637103,20.657928260113597,57.936171775497904,19.45893111144597,8.07465169527454,7.459892760623306,7.416198487095663,9.273618495495704,297.90000000000003,426.75,3356.6000000000004,378.65000000000003,65.2,55.650000000000006,55.0,86.0,1,51.0958399536274
9.751922887307918,18.128706517564897,43.5998853209501,21.390418415729975,10.658330075579382,10.293201639917484,8.514693182963201,8.151686941977102,95.10000000000001,328.65000000000003,1900.95,457.55,113.60000000000001,105.95,72.5,66.45,1,36.44661463741234
14.446452851824906,25.087845662790578,57.804844087671405,23.874672772626646,14.84082207965583,13.785862323409443,12.383456706428944,10.488088481701515,208.70000000000002,629.4000000000001,3341.4,570.0,220.25,190.05,153.35,110.0,1,50.70236470431075
18.536450577173614,22.541073621280777,58.56620185738529,41.822242885813765,13.767715859938424,10.947602477255009,9.664367542679656,10.447487736293352,343.6,508.1,3430.0,1749.1000000000001,189.55,119.85000000000001,93.4,109.15,1,58.18552297252835
15.657266683556234,32.546889252277246,65.49007558401502,31.214579926694512,11.629703349613008,8.502940667792526,7.7781745930520225,10.823585357911675,245.15,1059.3,4288.95,974.35,135.25,72.3,60.5,117.15,1,62.028138720700156
17.27859948028196,23.473389188611005,41.51325089655109,18.7136313953225,8.514693182963201,9.45515732285825,11.484772527133483,10.079682534683322,298.55,551.0,1723.3500000000001,350.20000000000005,72.5,89.4,131.9,101.60000000000001,1,53.50166324028305
9.284395510748128,20.972601173912597,42.90920647133899,19.106281689538655,8.54400374531753,8.683317338436964,9.718538984847465,9.289779329994873,86.2,439.85,1841.2,365.05,73.0,75.4,94.45,86.30000000000001,1,42.21122868394504
6.144102863722254,13.998214171814917,33.66749173906485,16.355427233796124,6.697014260101288,4.759201613716317,4.964876634922564,4.598912915026768,37.75,195.95000000000002,1133.5,267.5,44.85,22.650000000000002,24.650000000000002,21.150000000000002,1,31.029255723003697
9.391485505499118,20.93442141545832,70.68238818828917,40.44811491281145,10.594810050208546,9.452512893405647,10.312613635737547,9.300537618869138,88.2,438.25,4996.0,1636.0500000000002,112.25,89.35000000000001,106.35000000000001,86.5,1,52.174939963677005
16.246538092775335,24.25077318355025,60.72108365304427,43.37856613582335,14.444722219551334,12.343014218577244,12.495999359795118,14.177446878757825,263.95,588.1,3687.05,1881.7,208.65,152.35,156.15,201.0,1,65.70173592066672
15.469324484281788,23.08137777516758,71.59678763743524,29.960807732769823,13.13202193114221,14.15627069534911,12.461942063739505,14.508618128546908,239.3,532.75,5126.1,897.6500000000001,172.45000000000002,200.4,155.3,210.5,1,66.15893564523975
12.393546707863734,20.860249279430963,50.14479035752368,27.8621607202313,9.838699100999074,10.519030373565807,10.032447358446493,8.752142594816426,153.60000000000002,435.15000000000003,2514.5,776.3000000000001,96.80000000000001,110.65,100.65,76.60000000000001,1,60.87078899747945
10.421132376090421,19.553772014626745,33.98676212880538,16.067047021777213,8.07465169527454,10.428326807307105,11.30044246921332,9.216832427683602,108.60000000000001,382.35,1155.1000000000001,258.15000000000003,65.2,108.75,127.7,84.95,1,42.065776243164535
12.431814026923023,24.40286868382486,39.67870965643918,15.01832214330216,15.081445554057476,9.982484660644364,8.34565755348253,8.80056816347672,154.55,595.5,1574.4,225.55,227.45000000000002,99.65,69.65,77.45,1,36.83273589262228
9.573400649716902,12.706297651164952,53.846076923021975,24.354671009890485,12.25969004502153,9.1706052144883,5.932958789676531,6.892024376045111,91.65,161.45000000000002,2899.4,593.15,150.3,84.10000000000001,35.2,47.5,1,40.14801483200027
10.681760154581266,17.438463235044537,60.93808333054134,37.7683730123499,14.815532390029054,11.554220008291344,8.831760866327848,8.303613671167511,114.10000000000001,304.1,3713.4500000000003,1426.45,219.5,133.5,78.0,68.95,1,57.39208012678166
12.322743201089601,19.218480689169997,74.36464213589682,42.19952606368939,14.27585373979434,12.84523257866513,14.524117873385633,12.419742348374221,151.85,369.35,5530.1,1780.8000000000002,203.8,165.0,210.95000000000002,154.25,1,67.65136273321907
11.13777356566383,19.256167843057455,68.42258399096018,21.518596608515157,11.69829047339824,12.290240030202828,13.166244718977389,13.960659010233005,124.05000000000001,370.8,4681.650000000001,463.05,136.85,151.05,173.35000000000002,194.9,1,71.39361306342849
15.346009253222807,18.141113527013715,44.429719783046124,30.8431515899397,13.298496155580901,10.730796801729124,10.244510725261602,8.209750300709517,235.5,329.1,1974.0,951.3000000000001,176.85000000000002,115.15,104.95,67.4,1,56.42615188700315
12.769103335786738,26.055709547045538,43.01627598944381,21.85291742536909,13.442470011125186,10.293201639917484,9.313968005098578,9.151502608861563,163.05,678.9000000000001,1850.4,477.55,180.70000000000002,105.95,86.75,83.75,1,43.72299788624497
4.242640687119285,11.067971810589327,34.195028878478816,12.349089035228468,6.144102863722254,4.929503017546495,3.640054944640259,2.8372521918222215,18.0,122.5,1169.3,152.5,37.75,24.3,13.25,8.05,1,33.35059107106515
4.764451699828638,12.547908192204787,45.77007756165594,16.930741271426953,7.569676347110224,5.004997502496879,4.129164564412516,4.11703777004778,22.700000000000003,157.45000000000002,2094.9,286.65000000000003,57.300000000000004,25.05,17.05,16.95,1,39.98255322006737
13.930183056945088,21.609025891973936,57.728675716666146,26.86354406998451,16.099689437998485,11.478240283248997,8.567379996241558,9.531526635329726,194.05,466.95000000000005,3332.6000000000004,721.6500000000001,259.2,131.75,73.4,90.85000000000001,1,51.74937663916104
9.008329478876759,20.620378270051205,38.81945388590623,16.20493751916372,8.093207028119323,6.115553940568262,4.959838707054898,5.486346689738081,81.15,425.20000000000005,1506.95,262.6,65.5,37.4,24.6,30.1,1,48.27406480128619
7.304108432930059,15.466091943344964,39.16631205513228,18.436377084449102,10.042410069301093,7.14142842854285,5.522680508593631,5.10881590977792,53.35,239.20000000000002,1534.0,339.90000000000003,100.85000000000001,51.0,30.5,26.1,1,38.992882970519254
15.446682491719702,27.089665926326962,63.31745414970504,35.875479090877654,16.543881044059763,11.734564329364767,10.171037311896953,11.10180165558726,238.60000000000002,733.85,4009.1000000000004,1287.0500000000002,273.7,137.70000000000002,103.45,123.25,1,47.924488661694994
27.187313217749193,47.88893400358793,62.297672508690084,41.49036032622517,19.76486782146544,13.553597308463905,10.867382389517726,13.436889521016388,739.1500000000001,2293.35,3881.0,1721.45,390.65000000000003,183.70000000000002,118.10000000000001,180.55,1,62.80756332919756
8.482334584299302,22.838563877792318,41.02499238269277,18.69759342803239,11.047624178980746,10.370631610466162,9.047098982546835,11.273863579093016,71.95,521.6,1683.0500000000002,349.6,122.05000000000001,107.55000000000001,81.85000000000001,127.10000000000001,1,51.66133244569143
12.359207094308275,18.200274723201296,38.1103660438994,15.459624833740307,10.239628899525608,8.5,6.296824596572466,5.389805191284746,152.75,331.25,1452.4,239.0,104.85000000000001,72.25,39.650000000000006,29.05,1,39.56767921329609
6.568865959965997,16.837458240482736,55.18423687974674,20.148200912240277,7.54983443527075,4.909175083453431,4.123105625617661,3.930648801406709,43.150000000000006,283.5,3045.3,405.95000000000005,57.0,24.1,17.0,15.450000000000001,1,48.034721013909774
7.172865536171719,12.895735729302148,50.014997750674745,21.47905956972977,11.406138698087096,9.327379053088816,8.333666660000267,5.852349955359813,51.45,166.3,2501.5,461.35,130.1,87.0,69.45,34.25,1,52.59961731521074
17.623847480048163,29.796811910001377,65.57324149376787,31.76318623815942,20.625227271475094,17.045527272572123,15.096357176484664,14.632156368765337,310.6,887.85,4299.85,1008.9000000000001,425.40000000000003,290.55,227.9,214.10000000000002,1,57.7941196222213
11.01135777277262,21.90662000400792,52.36506469011568,25.711864965420148,12.920913280414817,8.491171886141512,5.408326913195984,5.2345009313209605,121.25,479.90000000000003,2742.1000000000004,661.1,166.95000000000002,72.10000000000001,29.25,27.400000000000002,1,58.96915309194178
7.078135347674555,13.234424808052673,43.6972539182956,20.877020860266438,10.72846680565308,7.990619500389191,6.953416426476988,5.766281297335398,50.1,175.15,1909.45,435.85,115.10000000000001,63.85,48.35,33.25,1,48.031159304205644
6.0332412515993425,13.34353776177817,31.127158559688674,9.589056262218927,6.434283176858165,5.527205442174192,5.094114250780011,3.7549966711037173,36.4,178.05,968.9000000000001,91.95,41.400000000000006,30.55,25.950000000000003,14.100000000000001,1,31.151234651964938
14.375326083258077,19.53970317072396,56.83704777695618,17.7313282074412,13.431306712304652,10.406728592598157,9.1104335791443,9.23038460737146,206.65,381.8,3230.4500000000003,314.40000000000003,180.4,108.30000000000001,83.0,85.2,1,43.98210316832244
30.417100453527784,57.76201173781952,53.437814326560925,20.96902477465273,9.741663102366044,11.696153213770756,11.704699910719626,10.0174847142384,925.2,3336.4500000000003,2855.6000000000004,439.70000000000005,94.9,136.8,137.0,100.35000000000001,1,55.13743105175856
16.566532527961304,17.484278652549552,33.82085155639934,17.45995418092499,7.899367063252599,5.865151319446072,6.15223536610881,8.628441342444185,274.45,305.7,1143.8500000000001,304.85,62.400000000000006,34.4,37.85,74.45,1,43.62933294148014
5.6524331044250316,26.248809496813376,36.40398329853479,13.557285864065861,7.439758060582347,6.6332495807108,5.612486080160912,6.5,31.950000000000003,689.0,1325.25,183.8,55.35,44.0,31.5,42.25,1,35.11241742746707
6.363961030678928,13.693063937629153,48.45719760778578,17.7426040929735,9.50789145920377,5.343220002957018,5.468089245796926,4.080441152620633,40.5,187.5,2348.1,314.8,90.4,28.55,29.900000000000002,16.650000000000002,1,43.88756622336842
14.522396496446445,24.674886017973822,68.61486719363377,33.99779404608481,15.630099167951558,11.419281938896159,11.242775458044157,9.402127418834526,210.9,608.85,4708.0,1155.8500000000001,244.3,130.4,126.4,88.4,1,58.53603240070978
10.329569206893384,20.23857702507763,44.9705459161883,19.53458471531965,9.583840566286565,15.679604586851035,17.424121211699603,24.17953680284219,106.7,409.6,2022.3500000000001,381.6,91.85000000000001,245.85000000000002,303.6,584.65,1,56.79270655491104
8.203657720797473,13.10915710486376,7.155417527999327,4.018706259482023,5.6258332716140815,9.402127418834526,31.107073150651765,15.152557539900648,67.3,171.85000000000002,51.2,16.150000000000002,31.650000000000002,88.4,967.6500000000001,229.60000000000002,2,22.413747942332
9.787747442593725,21.98522230954238,8.435045939412541,5.103920062069938,5.941380311005179,11.75159563633807,31.28338217009152,17.504285189632853,95.80000000000001,483.35,71.15,26.05,35.300000000000004,138.1,978.6500000000001,306.40000000000003,2,31.195227660371643
12.621410380777577,23.193749157908904,8.666025617317317,6.841052550594828,5.522680508593631,10.161200716450788,24.48673110074107,15.316657598836633,159.3,537.95,75.10000000000001,46.800000000000004,30.5,103.25,599.6,234.60000000000002,2,27.885056635416294
18.39157415774952,17.287278559680814,13.074784893068031,8.108637370113428,7.368853370776216,10.637198879404297,41.68392975716181,20.486580973896057,338.25,298.85,170.95000000000002,65.75,54.300000000000004,113.15,1737.5500000000002,419.70000000000005,2,33.08533042895144
9.38083151964686,26.39886361190572,10.057335631269348,6.978538528947161,4.753945729601885,8.372574275573792,31.15044140939258,16.62077013859466,88.0,696.9000000000001,101.15,48.7,22.6,70.10000000000001,970.35,276.25,2,36.417185583277195
14.472387501722029,18.709623192357455,11.421471008587291,5.403702434442518,5.722761571129799,14.042791745233567,47.36771052098676,12.535948308763881,209.45000000000002,350.05,130.45000000000002,29.200000000000003,32.75,197.20000000000002,2243.7000000000003,157.15,2,29.018881033626997
12.227019260637483,18.277034770443482,13.4740491315714,7.106335201775948,7.067531393633848,10.0772019926168,58.00086206255904,21.598611066455177,149.5,334.05,181.55,50.5,49.95,101.55000000000001,3364.1000000000004,466.5,2,52.68428629177289
10.141498903022176,34.78361683321618,8.252272414311102,5.305657357952923,4.898979485566356,11.144505372604026,43.35839019151887,9.452512893405647,102.85000000000001,1209.9,68.10000000000001,28.150000000000002,24.0,124.2,1879.95,89.35000000000001,2,50.679626127038944
5.852349955359813,15.124483462254174,11.20714058089752,7.684399781375251,6.160357132504576,11.155716023635597,39.53858874567983,8.44393273303382,34.25,228.75,125.60000000000001,59.050000000000004,37.95,124.45,1563.3000000000002,71.3,2,41.44848946859935
13.080519867344723,22.271057451320086,8.599418584997476,5.714017850864661,5.454356057317857,11.05667219374799,38.82009788756334,9.841239759298622,171.10000000000002,496.0,73.95,32.65,29.75,122.25,1507.0,96.85000000000001,2,39.17934331662158
8.34565755348253,25.437177516383375,9.604686356149273,7.3484692283495345,6.029096117993144,9.22767576370128,23.911294402436685,10.538026380684384,69.65,647.0500000000001,92.25,54.0,36.35,85.15,571.75,111.05000000000001,2,31.36569614500001
6.789698078707183,13.507405376311173,10.037429949942366,4.888762624632126,4.878524367060187,13.784048752090222,35.94509702309899,14.961617559608987,46.1,182.45000000000002,100.75,23.900000000000002,23.8,190.0,1292.0500000000002,223.85000000000002,2,24.40683168840765
9.904544411531507,24.72650399874596,6.2088646305101545,4.58257569495584,6.734240862933253,15.47578754054216,58.54698967496108,24.21156748333325,98.10000000000001,611.4,38.550000000000004,21.0,45.35,239.5,3427.75,586.2,2,47.24604334903003
7.351870510285121,13.67845020461017,6.434283176858165,7.304108432930059,8.994442728707543,12.271919165313957,29.207019704173856,14.108508071373103,54.050000000000004,187.10000000000002,41.400000000000006,53.35,80.9,150.6,853.0500000000001,199.05,2,43.877004689567464
5.431390245600108,15.362291495737216,5.865151319446072,6.5038450166036395,5.665686189686118,6.9498201415576215,22.36738697300156,11.779218989389747,29.5,236.0,34.4,42.300000000000004,32.1,48.300000000000004,500.3,138.75,2,25.7872033385877
7.886697661252142,15.907545379473227,7.37563556583431,4.5934736311423405,4.658325879540846,6.276941930590086,25.697276120242783,10.202940752547766,62.2,253.05,54.400000000000006,21.1,21.700000000000003,39.400000000000006,660.35,104.10000000000001,2,24.032331546622167
3.968626966596886,14.825653442597396,6.2809234989768825,4.904079934095692,5.709640969448079,11.85537852622176,39.79258724938604,11.502173707608488,15.75,219.8,39.45,24.05,32.6,140.55,1583.45,132.3,2,32.744931684814404
6.041522986797286,12.755391017134675,5.80086200490927,5.347896782848375,5.792236183029832,8.160882305241266,27.34318927996513,11.258330249197702,36.5,162.70000000000002,33.65,28.6,33.550000000000004,66.60000000000001,747.6500000000001,126.75,2,33.567888264675574
6.48459713474939,16.2234398325386,9.186947262284681,6.453681120105021,6.445928947793328,10.594810050208546,26.144789155776337,18.219495053376203,42.050000000000004,263.2,84.4,41.650000000000006,41.550000000000004,112.25,683.5500000000001,331.95000000000005,2,19.971669902152296
8.651589449343975,21.865497936246502,6.892024376045111,4.8373546489791295,5.826662852782886,11.23832727766904,23.078128173662613,11.670475568716126,74.85000000000001,478.1,47.5,23.400000000000002,33.95,126.30000000000001,532.6,136.20000000000002,2,24.611458664719468
12.243365550370536,15.096357176484664,7.3246160308919945,5.371219600798314,6.730527468185536,18.24280680158621,53.930510844975316,15.812969360622944,149.9,227.9,53.650000000000006,28.85,45.300000000000004,332.8,2908.5,250.05,2,38.50431950931896
8.056053624449133,18.022208521710095,5.911852501542981,6.123724356957945,5.634713834792322,7.443117626371358,25.3229145242012,12.310564568694646,64.9,324.8,34.95,37.5,31.75,55.400000000000006,641.25,151.55,2,39.62671268458825
6.760177512462229,13.10915710486376,4.242640687119285,3.2939338184001206,4.364630568559039,10.136567466356647,27.273613621960695,12.733813254481158,45.7,171.85000000000002,18.0,10.850000000000001,19.05,102.75,743.85,162.15,2,18.964798928091625
9.531526635329726,17.073371078963874,10.35615758860399,6.442049363362563,7.516648189186454,12.163469899662678,23.4574082114798,21.44644492684044,90.85000000000001,291.5,107.25,41.5,56.5,147.95000000000002,550.25,459.95000000000005,2,25.36551091672024
9.10768905925098,23.058620947489466,10.869682608061746,3.9937451095431715,3.721558813185679,4.9396356140913875,22.59756624063751,14.345731072343439,82.95,531.7,118.15,15.950000000000001,13.850000000000001,24.400000000000002,510.65000000000003,205.8,2,23.027487226058646
10.377861051295685,34.536936748935915,7.755643106796495,6.053924347066125,5.995831885568507,8.240145629781066,21.527888888602153,15.347638254793472,107.7,1192.8,60.150000000000006,36.65,35.95,67.9,463.45000000000005,235.55,2,22.062727564619824
17.845167413056117,23.69177072318572,4.494441010848846,2.932575659723036,3.057776970284131,6.967783004657938,32.36742189300841,9.343446901438462,318.45000000000005,561.3000000000001,20.200000000000003,8.6,9.35,48.550000000000004,1047.65,87.30000000000001,2,26.947655390805274
7.619055059520177,13.158647346897022,4.9899899799498595,6.144102863722254,5.856620185738529,11.216059914247962,19.894722918402255,11.78558441486887,58.050000000000004,173.15,24.900000000000002,37.75,34.300000000000004,125.80000000000001,395.8,138.9,2,19.932350192294415
19.888438852760668,27.499090894064118,11.4564392373896,7.12039324756716,8.249242389456137,14.028542333400146,63.03292790280331,27.598007174432,395.55,756.2,131.25,50.7,68.05,196.8,3973.15,761.6500000000001,2,41.46382541060278
23.48297255459794,29.364093720052047,10.461835403025608,7.345066371381542,8.648699324175862,12.56383699353028,42.01844832927556,21.03092960380021,551.45,862.25,109.45,53.95,74.8,157.85000000000002,1765.5500000000002,442.3,2,52.52568811603943
11.220516922138659,18.758997841036177,8.034301463101817,4.774934554525329,5.118593556827891,10.516653460107925,46.311445669510256,18.98288703016483,125.9,351.90000000000003,64.55,22.8,26.200000000000003,110.60000000000001,2144.75,360.35,2,44.1649469993929
11.78558441486887,28.146047679914137,7.503332592921628,5.054700782440045,5.674504383644443,12.72399308393399,41.68033109273485,14.695237323704575,138.9,792.2,56.300000000000004,25.55,32.2,161.9,1737.25,215.95000000000002,2,43.995888381122555
8.390470785361213,18.665476152512156,11.024971655292362,5.458937625582473,5.545268253204709,11.355615351005863,33.70014836762592,21.777281740382566,70.4,348.40000000000003,121.55000000000001,29.8,30.75,128.95000000000002,1135.7,474.25,2,24.597654451225488
6.534523701081817,15.759124341155507,17.970809664564364,7.742738533619742,6.837397165588672,7.416198487095663,18.139735389470268,8.814760348415605,42.7,248.35000000000002,322.95000000000005,59.95,46.75,55.0,329.05,77.7,2,25.91994187854809
5.019960159204453,16.241921068642096,5.123475382979799,3.788139384975162,3.9937451095431715,8.634234187233979,28.273662656260154,12.312595177297109,25.200000000000003,263.8,26.25,14.350000000000001,15.950000000000001,74.55,799.4000000000001,151.6,2,23.20669902286521
7.536577472566709,14.847558721890948,8.616843969807043,5.458937625582473,6.549809157525126,10.146427942877237,17.622428890479316,13.899640283115243,56.800000000000004,220.45000000000002,74.25,29.8,42.900000000000006,102.95,310.55,193.20000000000002,2,22.94804577336973
6.74166151627327,12.491997438360288,7.446475676452586,5.347896782848375,6.5306967469022785,11.567194992737004,24.829418035870273,8.921883209278185,45.45,156.05,55.45,28.6,42.650000000000006,133.8,616.5,79.60000000000001,2,21.22592346317479
3.2326459750489227,10.471389592599447,6.06630035524124,5.2345009313209605,5.403702434442518,7.915175298121956,20.553588494469768,15.073154945133417,10.450000000000001,109.65,36.800000000000004,27.400000000000002,29.200000000000003,62.650000000000006,422.45000000000005,227.20000000000002,2,18.676198988048363
7.915175298121956,16.9617216107328,9.77496803063826,5.13322510708424,6.870225614927067,13.794926603646719,38.811725032520776,16.78541033159452,62.650000000000006,287.7,95.55000000000001,26.35,47.2,190.3,1506.3500000000001,281.75,2,29.682656763495267
14.627029773675856,15.011662133155008,10.890362712049585,6.719374970932936,8.021845174272562,20.104725812604357,70.88406026745365,35.04283093587046,213.95000000000002,225.35000000000002,118.60000000000001,45.150000000000006,64.35000000000001,404.20000000000005,5024.55,1228.0,2,54.847892649987216
8.817596044274199,21.718655575334306,8.96102672688794,6.640783086353597,5.5362442142665635,9.594269122762817,52.33497874271088,34.08078637590395,77.75,471.70000000000005,80.30000000000001,44.1,30.650000000000002,92.05000000000001,2738.9500000000003,1161.5,2,61.60951950508226
9.924716620639604,16.994116628998402,8.709190547921201,5.783597496368502,7.412826721298698,20.190344226882313,47.86804779808761,24.976989410255193,98.5,288.8,75.85000000000001,33.45,54.95,407.65000000000003,2291.35,623.85,2,50.101513270399245
10.336827366266691,22.338307903688676,10.483320084782301,4.031128874149275,5.422176684690384,13.06330739131557,37.938107491017526,16.389020715100706,106.85000000000001,499.0,109.9,16.25,29.400000000000002,170.65,1439.3000000000002,268.6,2,42.90307764455257
6.866585760041158,16.175598906995685,5.73149195236284,3.361547262794322,4.954795656734998,11.269427669584644,39.04676683158287,14.700340132119392,47.150000000000006,261.65000000000003,32.85,11.3,24.55,127.0,1524.65,216.10000000000002,2,27.196388042402837
8.056053624449133,12.573782247199924,7.952986860293433,6.316644678941502,7.172865536171719,12.547908192204787,40.26785318340177,21.547621678505497,64.9,158.10000000000002,63.25,39.900000000000006,51.45,157.45000000000002,1621.5,464.3,2,39.65731000749232
7.829431652425353,21.854061407436376,12.103718436910205,6.967783004657938,7.372245248226622,15.522564221158822,45.44887237325036,23.07162759754933,61.300000000000004,477.6,146.5,48.550000000000004,54.35,240.95000000000002,2065.6,532.3000000000001,2,42.85836277832607
10.618380290797651,20.63492185592182,10.042410069301093,6.54217089351845,4.909175083453431,10.869682608061746,31.68122472380132,15.945218719101975,112.75,425.8,100.85000000000001,42.800000000000004,24.1,118.15,1003.7,254.25,2,38.56504854852584
9.633275663033837,25.452897673938818,12.599603168354152,6.910137480542627,6.395310782127793,13.221195104830729,41.015241069631664,17.717223258738937,92.80000000000001,647.85,158.75,47.75,40.900000000000006,174.8,1682.25,313.90000000000003,2,36.348232896716496
7.259476565152615,16.332482971061076,8.285529554590944,5.8779248038742375,5.916079783099616,14.918109799837245,36.45408070436011,22.954302428956538,52.7,266.75,68.65,34.550000000000004,35.0,222.55,1328.9,526.9,2,38.73466088699588
71.86549937209091,49.401416983726286,40.07243441569279,26.696441710460217,18.584940139801365,22.678183348760545,32.48230287402665,36.874110158755016,5164.650000000001,2440.5,1605.8000000000002,712.7,345.40000000000003,514.3000000000001,1055.1000000000001,1359.7,3,37.49181868605661
100.74671210516003,73.86203354904332,42.26641692881004,24.982994216066256,23.09112383579457,25.8408591188451,39.701385366256424,62.64024265597955,10149.900000000001,5455.6,1786.45,624.1500000000001,533.2,667.75,1576.2,3923.8,3,61.631725266384805
99.69653955880314,70.88088599897719,32.981055168080964,28.487716651216537,21.086725682286474,20.244752406487958,31.196954979612993,44.86646854834911,9939.400000000001,5024.1,1087.75,811.5500000000001,444.65000000000003,409.85,973.25,2013.0,3,72.37145977401025
74.67998393143908,56.61360260573425,29.392175829631938,18.1920312224886,20.189105973271822,22.073740054644116,30.936224721190527,45.66782236980433,5577.1,3205.1000000000004,863.9000000000001,330.95000000000005,407.6,487.25,957.0500000000001,2085.55,3,38.234666128699516
112.57264321317147,65.45418244848835,31.884949427590442,19.611221277625727,13.632681321002115,14.758048651498612,32.913523056640415,31.633842637276935,12672.6,4284.25,1016.6500000000001,384.6,185.85000000000002,217.8,1083.3,1000.7,3,61.033892527111306
73.21782569839124,54.87212407042395,21.9396900616212,17.321951391226104,16.105899540230592,19.922349259060788,38.91914695879137,31.491268631161876,5360.85,3010.9500000000003,481.35,300.05,259.40000000000003,396.90000000000003,1514.7,991.7,3,60.16315325945615
54.99181757316264,35.46477125261067,20.58275977608445,19.956202043475106,14.13329402510257,13.55912976558599,24.457105307047275,32.89832822500256,3024.1000000000004,1257.75,423.65000000000003,398.25,199.75,183.85000000000002,598.15,1082.3,3,24.051997956187606
73.00958841138608,40.82829900938808,23.842189496772313,17.096783323186852,11.436782764396638,15.480633061990714,28.175343831087492,32.703210851535665,5330.400000000001,1666.95,568.45,292.3,130.8,239.65,793.85,1069.5,3,38.146535130999375
77.75795779211283,59.341806511093004,45.09711742450952,48.19387927942718,30.01166439902992,21.253235047869772,29.497457517555645,32.92111784250346,6046.3,3521.4500000000003,2033.75,2322.65,900.7,451.70000000000005,870.1,1083.8,3,37.784934312918665
66.7918408190701,61.20988482263302,29.16333314283537,38.709172039711724,25.35941639707034,22.1054291973714,30.427783356662708,44.37285206069134,4461.150000000001,3746.65,850.5,1498.4,643.1,488.65000000000003,925.85,1968.95,3,47.83464060948586
60.092844831976464,58.5691898526862,32.305572274763996,29.87473849257931,19.15202339179858,16.024980499208105,23.892467432226418,24.092529962625346,3611.15,3430.3500000000004,1043.65,892.5,366.8,256.8,570.85,580.45,3,46.88750661731059
74.61668714168432,56.114169333600586,21.634463247328323,24.3094631779478,20.026232796010337,19.71547615453403,33.783131885602316,41.79952152836202,5567.650000000001,3148.8,468.05,590.95,401.05,388.70000000000005,1141.3,1747.2,3,57.3416795931434
75.58141305903192,35.49084388965695,20.81465829649865,28.597202660400196,13.3566462856512,12.720062892926277,23.34951819631403,24.289915602982237,5712.55,1259.6000000000001,433.25,817.8000000000001,178.4,161.8,545.2,590.0,3,30.597950878855432
97.2198539394089,70.69441279195973,35.74982517439771,34.904154480519935,22.554378732299412,24.015619917045655,45.148089660582535,55.13347440530118,9451.7,4997.700000000001,1278.0500000000002,1218.3,508.70000000000005,576.75,2038.3500000000001,3039.7000000000003,3,53.092628340808346
80.33959173408837,56.516811658125235,33.15644733683028,33.882886535831034,19.56399754651385,17.47998855834866,29.36920155537089,37.15373467095872,6454.450000000001,3194.15,1099.3500000000001,1148.05,382.75,305.55,862.5500000000001,1380.4,3,35.65266035538236
95.08680244913066,57.43300444866175,30.07656895325662,31.815876539866068,24.5855648704682,21.933991884743644,30.138015860371432,42.76037885706814,9041.5,3298.55,904.6,1012.25,604.45,481.1,908.3000000000001,1828.45,3,56.97490805339349
89.86239480450095,72.67908915224515,35.52956515354501,37.529321869706095,23.37627001897437,23.05319934412575,36.18839593018734,47.96092159247985,8075.25,5282.25,1262.3500000000001,1408.45,546.45,531.45,1309.6000000000001,2300.25,3,65.05604680045346
87.05056002117391,54.96589851899085,38.17066936798463,36.29049462324811,23.703375287076735,27.80197834687309,53.32213424085724,61.281726476984964,7577.8,3021.25,1457.0,1317.0,561.85,772.95,2843.25,3755.4500000000003,3,43.72410069650875
104.04518249299196,85.77004138975333,60.206311961454674,52.799147720394124,31.61961416589393,35.4922526757601,71.1273505762727,61.99153167973832,10825.400000000001,7356.5,3624.8,2787.75,999.8000000000001,1259.7,5059.1,3842.9500000000003,3,70.36796995437209
94.62240749420826,68.30007320640293,41.716303767232304,38.08674310045426,28.58933367534123,33.11117636086039,62.794904251857886,50.2896609652521,8953.4,4664.900000000001,1740.25,1450.6000000000001,817.35,1096.3500000000001,3943.2000000000003,2529.05,3,77.03505729807813
12.334909809155477,35.69453739719847,9.091204540653566,5.9707620954112715,7.615773105863909,6.34428877022476,5.531726674375733,3.5496478698597698,152.15,1274.1000000000001,82.65,35.65,58.0,40.25,30.6,12.600000000000001,3,33.33718477325891
113.45924378383631,87.72570888855786,50.66014212376432,56.7926051524316,41.45298541721694,39.08964057138413,56.256999564498635,64.11045156602782,12873.0,7695.8,2566.4500000000003,3225.4,1718.3500000000001,1528.0,3164.8500000000004,4110.150000000001,3,55.34381694748397
93.96648338636496,80.31095815640603,54.16825638692831,44.865354116511774,28.826203357362203,31.935873246241442,51.28498805693533,59.721436687340336,8829.7,6449.85,2934.2000000000003,2012.9,830.95,1019.9000000000001,2630.15,3566.65,3,84.01833352248195
13.825700705570044,19.371370627810517,40.253571270137016,15.774980190161887,7.9435508432942,8.009369513263826,12.033287165193059,11.229425630903835,191.15,375.25,1620.3500000000001,248.85000000000002,63.1,64.15,144.8,126.10000000000001,4,13.691583478202894
14.186260959111108,40.307567527698815,35.51267379401332,21.81857007230309,10.599528291391085,10.385085459446158,21.395092895334667,18.645374761586318,201.25,1624.7,1261.15,476.05,112.35000000000001,107.85000000000001,457.75,347.65000000000003,4,18.796775131232486
9.731392500562292,33.28663395418648,40.740029455070356,21.491858923787863,9.573400649716902,11.126544836560898,16.701796310576896,12.503999360204718,94.7,1108.0,1659.75,461.90000000000003,91.65,123.80000000000001,278.95,156.35000000000002,4,21.655214498045474
14.771594362153328,20.788217816830763,25.894980208526903,14.737706741552431,10.4546640309481,11.097296968181036,19.29248558377069,17.18429515575195,218.20000000000002,432.15000000000003,670.5500000000001,217.20000000000002,109.30000000000001,123.15,372.20000000000005,295.3,4,18.114782832670148
9.200543462209176,14.158036587041297,47.76923696271482,19.00657780874821,9.049861877399014,11.764352935882194,36.66196939609218,14.973309587395834,84.65,200.45000000000002,2281.9,361.25,81.9,138.4,1344.1000000000001,224.20000000000002,4,12.753288904374106
27.20937338492013,24.880715423797604,50.80895590346253,27.44722208166065,12.310564568694646,13.827508813954884,37.84375774153513,14.237275020171522,740.35,619.0500000000001,2581.55,753.35,151.55,191.20000000000002,1432.15,202.70000000000002,4,23.22689994520443
18.66815470259447,22.774986278810356,44.59035770208622,14.232006183247673,10.202940752547766,9.669539802906858,42.19656384114707,22.793639463674946,348.5,518.7,1988.3000000000002,202.55,104.10000000000001,93.5,1780.5500000000002,519.5500000000001,4,20.839614132454162
14.708840878872815,22.584286572747875,26.285927794163936,11.160197130875423,7.3484692283495345,10.904127658827184,25.26954688948735,12.280065146407,216.35000000000002,510.05,690.95,124.55000000000001,54.0,118.9,638.5500000000001,150.8,4,12.696101657061547
14.083678496756448,17.930421077041107,27.566283753890367,12.938315191708694,8.215838362577491,9.70051545022222,18.645374761586318,15.109599597606815,198.35000000000002,321.5,759.9000000000001,167.4,67.5,94.10000000000001,347.65000000000003,228.3,4,12.049256161292059
19.127205755154097,20.777391559096152,24.666779279022222,18.152134860671346,7.5398938984577235,7.762087348130012,19.218480689169997,11.899579824514813,365.85,431.70000000000005,608.45,329.5,56.85,60.25,369.35,141.6,4,15.545225026190021
15.270887335056859,9.869143833180262,35.74423030364481,17.488567694353932,5.576737397439475,4.806245936279167,7.355270219373317,9.795407086997457,233.20000000000002,97.4,1277.65,305.85,31.1,23.1,54.1,95.95,4,13.515290030363065
13.980343343423293,30.133038346638727,34.335113222472415,19.542261895696722,12.773018437315434,14.394443372357264,25.894014752448104,23.15599274485981,195.45000000000002,908.0,1178.9,381.90000000000003,163.15,207.20000000000002,670.5,536.2,4,18.51541479502533
23.485101660414415,39.83842366359392,25.750728145044754,17.324837661577092,13.632681321002115,15.625299997120056,14.913081505845799,18.997368238785075,551.5500000000001,1587.1000000000001,663.1,300.15000000000003,185.85000000000002,244.15,222.4,360.90000000000003,4,18.43354977863691
14.296852800529214,28.72977549512004,29.87473849257931,14.451643505151932,8.363611660042569,8.423182296495785,13.005767951182275,15.461241864740362,204.4,825.4000000000001,892.5,208.85000000000002,69.95,70.95,169.15,239.05,4,15.888240583364512
7.463243262818116,24.713356712514795,17.95132307101624,14.844190782929193,13.021136663133523,10.924742559895861,10.862780491200215,6.9498201415576215,55.7,610.75,322.25,220.35000000000002,169.55,119.35000000000001,118.0,48.300000000000004,4,14.647917144040562
8.896628574915331,14.010710188994704,40.05121720996754,16.03901493234544,8.028075734570521,8.297590011563598,12.091319200153471,22.48443906349456,79.15,196.3,1604.1000000000001,257.25,64.45,68.85000000000001,146.20000000000002,505.55,4,12.005420159647077
11.07925990308017,14.012494424619765,27.62878933286799,15.926393188666417,8.752142594816426,10.47377677822093,10.116817681464859,14.166862743741113,122.75,196.35000000000002,763.35,253.65,76.60000000000001,109.7,102.35000000000001,200.70000000000002,4,15.982704060505931
27.44813290553658,36.17872302887431,22.436577279077127,17.86057109949175,12.491997438360288,15.956190021430555,18.43773304937459,16.53934702459562,753.4000000000001,1308.9,503.40000000000003,319.0,156.05,254.60000000000002,339.95000000000005,273.55,4,16.893482144079087
17.277152543170995,14.228492541376264,24.42027845869084,15.732132722552274,9.091204540653566,5.987486951969082,7.238784428341543,17.11432148815722,298.5,202.45000000000002,596.35,247.5,82.65,35.85,52.400000000000006,292.90000000000003,4,16.796351911022015
8.312640976248161,24.900803199896984,17.69321904007295,11.46298390472568,6.730527468185536,7.321202087089251,6.967783004657938,7.88986691902975,69.10000000000001,620.0500000000001,313.05,131.4,45.300000000000004,53.6,48.550000000000004,62.25,4,13.597558313638979
16.11521020650987,28.025880896057487,30.112289849827096,14.112051587207297,6.078651166171653,11.224972160321824,19.519221295943137,15.056560032092323,259.7,785.45,906.75,199.15,36.95,126.0,381.0,226.70000000000002,4,12.737134840259944
23.15815191244759,18.571483516402235,37.67691600967361,22.807893370497855,10.963576058932597,9.62029105588807,28.33284313301438,14.099645385611653,536.3000000000001,344.90000000000003,1419.5500000000002,520.2,120.2,92.55000000000001,802.75,198.8,4,18.459972478852578
15.116216457830975,31.078931770574098,19.733220720399395,17.370952766040208,9.423375191511797,9.478923989567592,16.47573974060042,11.802542099056458,228.5,965.9000000000001,389.40000000000003,301.75,88.80000000000001,89.85000000000001,271.45,139.3,4,20.08942306826903
3.0903074280724887,10.141498903022176,26.2592840724952,12.212698309546504,6.689544080129826,5.113707070218238,5.220153254455275,3.4641016151377544,9.55,102.85000000000001,689.5500000000001,149.15,44.75,26.150000000000002,27.25,12.0,4,10.724249110380779
5.513619500836088,6.568865959965997,17.039659621013563,9.060905032059436,7.155417527999327,6.144102863722254,5.4359911699707535,4.78539444560216,30.400000000000002,43.150000000000006,290.35,82.10000000000001,51.2,37.75,29.55,22.900000000000002,4,10.63680167080297
7.92148975887743,11.521718621802913,39.36305374332637,20.997618912629118,10.805091392487155,11.253888216967503,13.015375522819156,19.261360284258224,62.75,132.75,1549.45,440.90000000000003,116.75,126.65,169.4,371.0,4,15.029261972344276
8.494115610232768,23.31201407000262,25.077878698167435,14.18097316829843,9.060905032059436,10.012492197250394,10.21273714534943,11.91217864204529,72.15,543.45,628.9000000000001,201.10000000000002,82.10000000000001,100.25,104.30000000000001,141.9,4,17.589296040463772
8.438009243891594,12.680693987317888,25.257672101759496,12.812103652406188,9.787747442593725,7.842193570679061,9.917156850630123,7.993747556684537,71.2,160.8,637.95,164.15,95.80000000000001,61.5,98.35000000000001,63.900000000000006,4,13.496538410352308
7.365459931328117,12.2494897852931,21.53601634471891,12.425779653607254,8.200609733428363,8.363611660042569,7.729812416870153,8.414273587185052,54.25,150.05,463.8,154.4,67.25,69.95,59.75,70.8,4,12.618941653006722
6.618156843109719,9.856469956328178,32.82224855185884,16.028100324118263,6.070420084310475,7.355270219373317,8.555699854482976,13.078608488673403,43.800000000000004,97.15,1077.3,256.90000000000003,36.85,54.1,73.2,171.05,4,13.854640885607564
18.287974190707946,25.375184728391634,27.087820141163075,12.393546707863734,12.130539971493437,10.300485425454472,10.867382389517726,18.11353085403285,334.45000000000005,643.9000000000001,733.75,153.60000000000002,147.15,106.10000000000001,118.10000000000001,328.1,4,14.210823515990999
12.974975915199225,25.7400466200044,30.12723020790328,12.878276282173792,7.207634840916957,13.285330255586423,14.974979131871937,22.027255843613386,168.35000000000002,662.5500000000001,907.6500000000001,165.85000000000002,51.95,176.5,224.25,485.20000000000005,4,13.76375417197889
9.82344135219425,25.29229131573492,33.38188131307162,19.77371993328519,9.894442884771228,7.768526243760782,6.640783086353597,19.859506539690255,96.5,639.7,1114.3500000000001,391.0,97.9,60.35,44.1,394.40000000000003,4,16.32599810772949
18.9010581714358,29.22071183253413,27.573538039214334,14.377065069060514,5.748912940721924,7.572978278062073,6.967783004657938,9.954898291795853,357.25,853.85,760.3000000000001,206.70000000000002,33.050000000000004,57.35,48.550000000000004,99.10000000000001,4,17.07539250117285
9.751922887307918,7.466592261534039,16.057708429287164,10.594810050208546,8.5848704125339,8.209750300709517,8.096295449154509,9.31933474020544,95.10000000000001,55.75,257.85,112.25,73.7,67.4,65.55,86.85000000000001,4,12.485937559634532
6.800735254367722,11.473883387938018,18.061007723823163,13.79130160644745,7.249137879775773,4.370354676682432,2.7658633371878665,4.4328320518603,46.25,131.65,326.20000000000005,190.20000000000002,52.550000000000004,19.1,7.65,19.650000000000002,4,12.193055828328
7.90253124005214,12.049896265113654,29.971653274385783,13.942740046346701,8.139410298049853,7.095773389842717,8.52936105461599,7.918333157931662,62.45,145.20000000000002,898.3000000000001,194.4,66.25,50.35,72.75,62.7,4,10.33663375726612
4.533210782657255,15.620499351813308,31.610915836147488,14.776670802315385,9.50789145920377,6.786015030929419,10.947602477255009,9.192388155425117,20.55,244.0,999.25,218.35000000000002,90.4,46.050000000000004,119.85000000000001,84.5,4,14.359705424331045
10.945318634009702,26.820700960265746,23.00652081476032,10.15135458941318,7.755643106796495,7.276675064890558,10.530906893520616,12.651086909827155,119.80000000000001,719.35,529.3000000000001,103.05000000000001,60.150000000000006,52.95,110.9,160.05,4,12.464012695864284
5.504543577809154,10.360984509205677,27.254357449773053,11.562871615649808,6.745368781616021,5.518151864528558,5.527205442174192,8.532291603080617,30.3,107.35000000000001,742.8000000000001,133.70000000000002,45.5,30.450000000000003,30.55,72.8,4,10.582477361488026
23.474454200257775,43.674935603844915,32.438403166617185,22.63404515326414,9.641058033224361,13.793114224133722,32.45689449100145,17.622428890479316,551.0500000000001,1907.5,1052.25,512.3000000000001,92.95,190.25,1053.45,310.55,4,17.098458384456976
39.2122429860879,69.97535280368368,43.29029914426557,22.928148638736623,13.442470011125186,10.552250944703694,40.19950248448356,22.264321233758732,1537.6000000000001,4896.55,1874.0500000000002,525.7,180.70000000000002,111.35000000000001,1616.0,495.70000000000005,4,22.781096896000385
13.74772708486752,24.75681724293331,35.6110937770802,14.633864834690801,11.337989239719713,8.432081593533118,26.484901359076268,15.114562514343575,189.0,612.9,1268.15,214.15,128.55,71.10000000000001,701.45,228.45000000000002,4,18.781006736713714
14.087228258248675,35.601966237835796,37.71737000375291,18.825514601200148,8.919080670113933,7.6681158050723255,20.70507184242547,7.060453243241541,198.45000000000002,1267.5,1422.6000000000001,354.40000000000003,79.55000000000001,58.800000000000004,428.70000000000005,49.85,4,16.729689717945476
2.247220505424423,12.749509794497984,2.6362852652928135,2.701851217221259,2.6457513110645907,2.756809750418044,1.8303005217723127,3.082207001484488,5.050000000000001,162.55,6.95,7.300000000000001,7.0,7.6000000000000005,3.35,9.5,5,
2.224859546128699,12.804296154025804,2.8284271247461903,4.358898943540674,3.0495901363953815,2.9410882339705484,2.3021728866442674,3.255764119219941,4.95,163.95000000000002,8.0,19.0,9.3,8.65,5.300000000000001,10.600000000000001,5,
2.1330729007701543,8.446892919884801,2.5592967784139455,3.794733192202055,2.7748873851023217,2.3021728866442674,2.345207879911715,2.355843797877949,4.55,71.35000000000001,6.550000000000001,14.4,7.7,5.300000000000001,5.5,5.550000000000001,5,
2.4083189157584592,9.586448768965493,2.5495097567963922,2.449489742783178,2.6457513110645907,2.355843797877949,2.1095023109728985,2.6739483914241875,5.800000000000001,91.9,6.5,6.0,7.0,5.550000000000001,4.45,7.15,5,
2.7386127875258306,10.519030373565807,2.6457513110645907,2.3874672772626644,2.949576240750525,2.756809750418044,1.8708286933869707,1.8708286933869707,7.5,110.65,7.0,5.7,8.700000000000001,7.6000000000000005,3.5,3.5,5,
1.9621416870348585,10.12669738858627,3.057776970284131,3.1144823004794873,2.1095023109728985,2.0371548787463363,2.1563858652847827,2.3664319132398464,3.85,102.55000000000001,9.35,9.700000000000001,4.45,4.15,4.65,5.6000000000000005,5,
2.0976176963403033,9.113177272499422,2.0615528128088303,3.8535697735995385,2.7658633371878665,2.569046515733026,2.5099800796022267,2.32379000772445,4.4,83.05000000000001,4.25,14.850000000000001,7.65,6.6000000000000005,6.300000000000001,5.4,5,
2.3769728648009427,7.697402159170326,3.3015148038438356,4.769696007084728,4.883646178829912,3.9179076048319463,3.598610843089316,2.32379000772445,5.65,59.25,10.9,22.75,23.85,15.350000000000001,12.950000000000001,5.4,5,
2.29128784747792,8.46758525200662,3.4132096331752027,6.216912416947821,7.473285756613352,6.4031242374328485,4.370354676682432,2.8896366553599777,5.25,71.7,11.65,38.650000000000006,55.85,41.0,19.1,8.35,5,
2.0124611797498106,8.952653238007155,3.9560080889704965,5.277309920783504,10.259142264341596,7.2180329730474355,4.080441152620633,2.5787593916455256,4.05,80.15,15.65,27.85,105.25,52.1,16.650000000000002,6.65,5,
2.588435821108957,9.85393322486001,2.7658633371878665,5.2345009313209605,3.9179076048319463,3.22490309931942,2.04939015319192,2.4899799195977463,6.7,97.10000000000001,7.65,27.400000000000002,15.350000000000001,10.4,4.2,6.2,5,
1.9493588689617927,10.171037311896953,1.9235384061671346,3.2326459750489227,5.440588203494177,3.3241540277189325,1.7888543819998317,2.280350850198276,3.8000000000000003,103.45,3.7,10.450000000000001,29.6,11.05,3.2,5.2,5,
1.8841443681416772,10.141498903022176,3.6124783736376886,5.142956348249516,9.036038955205981,7.605918747922567,4.410215414239989,2.9916550603303182,3.5500000000000003,102.85000000000001,13.05,26.450000000000003,81.65,57.85,19.450000000000003,8.950000000000001,5,
2.1213203435596424,9.643650760992955,2.4186773244895647,3.570714214271425,4.636809247747852,4.171330722922842,3.1622776601683795,1.8841443681416772,4.5,93.0,5.8500000000000005,12.75,21.5,17.400000000000002,10.0,3.5500000000000003,5,
2.1213203435596424,8.62554346113913,2.5495097567963922,3.0740852297878796,4.598912915026768,4.410215414239989,2.6172504656604803,2.5,4.5,74.4,6.5,9.450000000000001,21.150000000000002,19.450000000000003,6.8500000000000005,6.25,5,
1.5811388300841898,11.298229949863828,2.4899799195977463,4.631414470763764,6.700746227100382,5.0,3.4641016151377544,2.569046515733026,2.5,127.65,6.2,21.450000000000003,44.900000000000006,25.0,12.0,6.6000000000000005,5,
1.5,10.222524150130436,2.6457513110645907,4.3531597719357835,4.604345773288535,3.7282703764614498,2.4596747752497685,2.6551836094703507,2.25,104.5,7.0,18.95,21.200000000000003,13.9,6.050000000000001,7.050000000000001,5,
2.0248456731316584,10.984079387914129,2.819574435974337,4.110960958218893,5.315072906367325,3.271085446759225,2.8284271247461903,2.7838821814150108,4.1000000000000005,120.65,7.95,16.900000000000002,28.25,10.700000000000001,8.0,7.75,5,
2.4698178070456938,10.435516278555651,2.224859546128699,3.8340579025361627,3.521363372331802,4.012480529547776,3.0983866769659336,2.924038303442689,6.1000000000000005,108.9,4.95,14.700000000000001,12.4,16.1,9.600000000000001,8.55,5,
1.2649110640673518,10.268885041717041,2.7386127875258306,5.338539126015656,4.364630568559039,3.924283374069717,3.0903074280724887,1.9874606914351791,1.6,105.45,7.5,28.5,19.05,15.4,9.55,3.95,5,
2.4392621835300936,10.519030373565807,2.4083189157584592,4.716990566028302,5.958187643906492,5.181698563212646,2.9832867780352594,2.3345235059857505,5.95,110.65,5.800000000000001,22.25,35.5,26.85,8.9,5.45,5,
2.0248456731316584,11.434596626029272,2.588435821108957,3.556683848755748,5.9076221950967716,4.260281680828158,3.361547262794322,2.247220505424423,4.1000000000000005,130.75,6.7,12.65,34.9,18.150000000000002,11.3,5.050000000000001,5,
2.4899799195977463,12.361229712289955,3.420526275297414,3.4641016151377544,4.964876634922564,3.1622776601683795,3.0903074280724887,2.258317958127243,6.2,152.8,11.700000000000001,12.0,24.650000000000002,10.0,9.55,5.1000000000000005,5,
1.8439088914585775,11.231651704001509,2.16794833886788,4.043513323831146,3.9937451095431715,3.7682887362833544,2.16794833886788,2.6551836094703507,3.4000000000000004,126.15,4.7,16.35,15.950000000000001,14.200000000000001,4.7,7.050000000000001,5,
1.9874606914351791,10.865081684000355,2.29128784747792,3.3763886032268267,4.1952353926806065,2.588435821108957,2.6172504656604803,2.1908902300206643,3.95,118.05000000000001,5.25,11.4,17.6,6.7,6.8500000000000005,4.800000000000001,5,
2.3664319132398464,10.825894882179487,2.5495097567963922,4.254409477236529,5.229722745997153,4.301162633521313,3.521363372331802,2.32379000772445,5.6000000000000005,117.2,6.5,18.1,27.35,18.5,12.4,5.4,5,
2.280350850198276,10.714476188783099,2.6645825188948455,5.103920062069938,4.444097208657794,3.8013155617496426,3.03315017762062,1.8841443681416772,5.2,114.80000000000001,7.1000000000000005,26.05,19.75,14.450000000000001,9.200000000000001,3.5500000000000003,5,
2.8635642126552705,10.322305943925514,3.3166247903554,5.674504383644443,7.6452599694189605,6.430396566309111,4.55521678957215,2.3874672772626644,8.200000000000001,106.55000000000001,11.0,32.2,58.45,41.35,20.75,5.7,5,
1.61245154965971,9.831073186585481,2.898275349237888,4.636809247747852,5.787918451395113,3.687817782917155,2.9410882339705484,2.819574435974337,2.6,96.65,8.4,21.5,33.5,13.600000000000001,8.65,7.95,5,
1.8303005217723127,9.578622030334008,2.4698178070456938,3.8340579025361627,5.744562646538029,4.679743582719036,2.3664319132398464,2.569046515733026,3.35,91.75,6.1000000000000005,14.700000000000001,33.0,21.900000000000002,5.6000000000000005,6.6000000000000005,5,
1.8027756377319946,9.340770846134703,2.539685019840059,4.2485291572496005,5.911852501542981,5.277309920783504,3.138470965295043,2.6267851073127395,3.25,87.25,6.45,18.05,34.95,27.85,9.850000000000001,6.9,5,
1.746424919657298,8.154753215150045,2.280350850198276,3.0083217912982647,4.466542286825459,4.09878030638384,2.7386127875258306,1.9235384061671346,3.0500000000000003,66.5,5.2,9.05,19.950000000000003,16.8,7.5,3.7,5,
2.179449471770337,10.072239075796404,2.1095023109728985,3.427827300200522,6.5612498809297,4.636809247747852,2.7386127875258306,2.1095023109728985,4.75,101.45,4.45,11.75,43.050000000000004,21.5,7.5,4.45,5,
1.9364916731037085,10.067273712381123,2.569046515733026,4.2895221179054435,7.615773105863909,6.859300255857007,4.61519230368573,2.924038303442689,3.75,101.35000000000001,6.6000000000000005,18.400000000000002,58.0,47.050000000000004,21.3,8.55,5,
1.6881943016134133,10.375451797391765,2.6739483914241875,2.692582403567252,4.466542286825459,3.3166247903554,2.1563858652847827,3.0083217912982647,2.85,107.65,7.15,7.25,19.950000000000003,11.0,4.65,9.05,5,
2.0371548787463363,10.012492197250394,2.8809720581775866,5.886425061104575,6.992853494818835,5.70087712549569,3.3241540277189325,1.9621416870348585,4.15,100.25,8.3,34.65,48.900000000000006,32.5,11.05,3.85,5,
2.202271554554524,10.573551910309043,2.4392621835300936,4.049691346263317,5.70087712549569,4.364630568559039,2.958039891549808,3.0,4.8500000000000005,111.80000000000001,5.95,16.400000000000002,32.5,19.05,8.75,9.0,5,
2.4289915602982237,11.122050170719426,3.3015148038438356,3.847076812334269,5.705260730238365,4.224926034855522,2.9410882339705484,2.8460498941515415,5.9,123.7,10.9,14.8,32.550000000000004,17.85,8.65,8.1,5,
1.9493588689617927,12.336936410632909,2.5099800796022267,4.893873721296862,4.642197755374064,4.460941604639093,2.711088342345192,2.569046515733026,3.8000000000000003,152.20000000000002,6.300000000000001,23.950000000000003,21.55,19.900000000000002,7.3500000000000005,6.6000000000000005,5,
2.1563858652847827,10.936178491593852,2.3021728866442674,4.05585995813465,4.8425200051213,3.2326459750489227,2.29128784747792,2.598076211353316,4.65,119.60000000000001,5.300000000000001,16.45,23.450000000000003,10.450000000000001,5.25,6.75,5,
2.1213203435596424,11.58015543937127,2.32379000772445,3.1543620591175006,4.47213595499958,3.687817782917155,3.138470965295043,2.6832815729997477,4.5,134.1,5.4,9.950000000000001,20.0,13.600000000000001,9.850000000000001,7.2,5,
3.1543620591175006,10.674736530706507,2.4698178070456938,3.521363372331802,5.608029957123981,3.7549966711037173,4.883646178829912,5.142956348249516,9.950000000000001,113.95,6.1000000000000005,12.4,31.450000000000003,14.100000000000001,23.85,26.450000000000003,5,
2.1908902300206643,11.146748404803978,2.23606797749979,3.6606010435446255,3.774917217635375,3.024896692450835,3.0903074280724887,2.2693611435820435,4.800000000000001,124.25,5.0,13.4,14.25,9.15,9.55,5.15,5,
1.6733200530681511,11.126544836560898,2.6739483914241875,4.511097427455985,5.422176684690384,4.427188724235731,3.0083217912982647,2.247220505424423,2.8000000000000003,123.80000000000001,7.15,20.35,29.400000000000002,19.6,9.05,5.050000000000001,5,
1.6431676725154984,9.31933474020544,2.701851217221259,3.8144462245521304,3.556683848755748,3.1859064644147983,1.8708286933869707,2.6645825188948455,2.7,86.85000000000001,7.300000000000001,14.55,12.65,10.15,3.5,7.1000000000000005,5,
2.16794833886788,9.428679653058534,2.7294688127912363,4.743416490252569,5.431390245600108,4.260281680828158,2.9410882339705484,2.32379000772445,4.7,88.9,7.45,22.5,29.5,18.150000000000002,8.65,5.4,5,
2.0,8.913472948295743,3.4351128074635335,4.636809247747852,4.929503017546495,4.295346318982906,3.605551275463989,2.539685019840059,4.0,79.45,11.8,21.5,24.3,18.45,13.0,6.45,5,
2.04939015319192,8.54107721543366,3.1064449134018135,3.8013155617496426,4.092676385936225,2.5,2.756809750418044,2.5,4.2,72.95,9.65,14.450000000000001,16.75,6.25,7.6000000000000005,6.25,5,
2.2135943621178655,7.758865896508329,3.2093613071762426,3.7416573867739413,3.248076353782343,2.04939015319192,2.449489742783178,2.0124611797498106,4.9,60.2,10.3,14.0,10.55,4.2,6.0,4.05,5,
1.6583123951777,7.19027120489902,3.361547262794322,5.044799302251775,3.9749213828703582,2.6551836094703507,2.04939015319192,2.345207879911715,2.75,51.7,11.3,25.450000000000003,15.8,7.050000000000001,4.2,5.5,5,
1.8973665961010275,7.516648189186454,2.1330729007701543,2.8460498941515415,3.361547262794322,2.9664793948382653,2.23606797749979,2.3345235059857505,3.6,56.5,4.55,8.1,11.3,8.8,5.0,5.45,5,
1.4832396974191326,7.905694150420948,1.857417562100671,2.4596747752497685,3.5355339059327378,1.9235384061671346,1.7748239349298849,2.8548204847240397,2.2,62.5,3.45,6.050000000000001,12.5,3.7,3.1500000000000004,8.15,5,
2.1213203435596424,8.399404740813482,2.3021728866442674,2.4083189157584592,2.692582403567252,1.7748239349298849,1.5968719422671311,2.3021728866442674,4.5,70.55,5.300000000000001,5.800000000000001,7.25,3.1500000000000004,2.5500000000000003,5.300000000000001,5,
2.29128784747792,8.87693640846886,2.6551836094703507,3.8987177379235853,3.4351128074635335,2.247220505424423,2.5592967784139455,1.8973665961010275,5.25,78.80000000000001,7.050000000000001,15.200000000000001,11.8,5.050000000000001,6.550000000000001,3.6,5,
1.9235384061671346,8.408329203831164,2.2693611435820435,2.4289915602982237,3.383784863137726,1.7748239349298849,1.396424004376894,2.6739483914241875,3.7,70.7,5.15,5.9,11.450000000000001,3.1500000000000004,1.9500000000000002,7.15,5,
2.0248456731316584,9.460443964212251,1.9621416870348585,2.7748873851023217,2.9748949561287032,2.32379000772445,2.8548204847240397,2.1330729007701543,4.1000000000000005,89.5,3.85,7.7,8.85,5.4,8.15,4.55,5,
2.0371548787463363,8.697700845625814,1.6278820596099706,2.16794833886788,4.511097427455985,2.202271554554524,1.7888543819998317,2.80178514522438,4.15,75.65,2.6500000000000004,4.7,20.35,4.8500000000000005,3.2,7.8500000000000005,5,
1.7320508075688772,9.340770846134703,2.569046515733026,2.8106938645110393,3.427827300200522,2.1563858652847827,2.6076809620810595,2.3130067012440754,3.0,87.25,6.6000000000000005,7.9,11.75,4.65,6.800000000000001,5.3500000000000005,5,
1.9874606914351791,9.78008179924892,1.8027756377319946,3.1144823004794873,3.271085446759225,1.9874606914351791,2.6457513110645907,1.5329709716755893,3.95,95.65,3.25,9.700000000000001,10.700000000000001,3.95,7.0,2.35,5,
2.449489742783178,9.008329478876759,2.449489742783178,3.0166206257996713,3.9496835316262997,2.8635642126552705,1.816590212458495,2.7658633371878665,6.0,81.15,6.0,9.1,15.600000000000001,8.200000000000001,3.3000000000000003,7.65,5,
2.0,9.818350166906862,2.3130067012440754,2.3021728866442674,3.420526275297414,2.6362852652928135,2.4289915602982237,2.9916550603303182,4.0,96.4,5.3500000000000005,5.300000000000001,11.700000000000001,6.95,5.9,8.950000000000001,5,
1.8303005217723127,10.445094542415593,2.1213203435596424,4.177319714841085,3.1859064644147983,2.16794833886788,2.073644135332772,2.8548204847240397,3.35,109.10000000000001,4.5,17.45,10.15,4.7,4.3,8.15,5,
2.3979157616563596,8.879752248796134,2.1330729007701543,4.415880433163924,3.6674241641784495,2.1908902300206643,2.355843797877949,2.5495097567963922,5.75,78.85000000000001,4.55,19.5,13.450000000000001,4.800000000000001,5.550000000000001,6.5,5,
2.280350850198276,10.373041983911952,2.073644135332772,4.387482193696061,2.1447610589527217,1.746424919657298,1.9235384061671346,2.1330729007701543,5.2,107.60000000000001,4.3,19.25,4.6000000000000005,3.0500000000000003,3.7,4.55,5,
2.756809750418044,41.50542133264039,2.7748873851023217,7.197221686178632,9.749358953285082,4.159326868617084,2.9916550603303182,6.422616289332565,7.6000000000000005,1722.7,7.7,51.800000000000004,95.05000000000001,17.3,8.950000000000001,41.25,5,
2.6267851073127395,50.409820471808864,3.8600518131237567,8.45872330792301,11.939430472179149,4.8425200051213,4.153311931459037,8.28854631404084,6.9,2541.15,14.9,71.55,142.55,23.450000000000003,17.25,68.7,5,
2.3874672772626644,48.84567534593006,3.681032463861192,9.879271228182775,9.82089608946149,4.544227107000705,3.556683848755748,6.985699678629192,5.7,2385.9,13.55,97.60000000000001,96.45,20.650000000000002,12.65,48.800000000000004,5,
2.32379000772445,49.6673937306962,3.383784863137726,9.151502608861563,11.4564392373896,4.505552130427524,3.383784863137726,7.409453421137082,5.4,2466.8500000000004,11.450000000000001,83.75,131.25,20.3,11.450000000000001,54.900000000000006,5,
1.91049731745428,50.39394804934418,3.492849839314596,9.35681569766125,10.890362712049585,3.9749213828703582,3.420526275297414,7.310950690573696,3.6500000000000004,2539.55,12.200000000000001,87.55000000000001,118.60000000000001,15.8,11.700000000000001,53.45,5,
1.9364916731037085,52.769309262108024,3.943348830626071,10.143963722332607,10.67239429556461,4.2485291572496005,3.024896692450835,9.1104335791443,3.75,2784.6000000000004,15.55,102.9,113.9,18.05,9.15,83.0,5,
3.278719262151,57.38031021177909,4.39317652729776,8.938679992034618,12.860793132618221,4.790615826801393,3.3541019662496847,8.930285549745875,10.75,3292.5,19.3,79.9,165.4,22.950000000000003,11.25,79.75,5,
2.1213203435596424,59.882802205641646,4.324349662087931,11.329165900453573,11.661903789690601,4.306971093471606,3.774917217635375,8.848728722251575,4.5,3585.9500000000003,18.7,128.35,136.0,18.55,14.25,78.30000000000001,5,
2.539685019840059,62.089451600090655,4.024922359499621,11.013627921806693,11.049886877249016,4.219004621945797,3.5071355833500366,9.62029105588807,6.45,3855.1000000000004,16.2,121.30000000000001,122.10000000000001,17.8,12.3,92.55000000000001,5,
2.6172504656604803,62.0685105347309,4.080441152620633,11.36221809331259,12.767145334803704,5.678908345800274,3.987480407475377,9.055385138137417,6.8500000000000005,3852.5,16.650000000000002,129.1,163.0,32.25,15.9,82.0,5,
2.539685019840059,64.96614502954597,4.201190307520001,11.351211389098522,13.34353776177817,5.616938667993447,4.08656334834051,9.433981132056603,6.45,4220.6,17.650000000000002,128.85,178.05,31.55,16.7,89.0,5,
3.138470965295043,65.97461633082833,4.811444689487764,11.425847889762931,13.481468762712764,4.984977432245807,4.364630568559039,11.01135777277262,9.850000000000001,4352.650000000001,23.150000000000002,130.55,181.75,24.85,19.05,121.25,5,
2.80178514522438,63.88348769439565,4.969909455915671,11.180339887498949,13.525901079040908,5.333854141237834,4.049691346263317,8.977750274985375,7.8500000000000005,4081.1000000000004,24.700000000000003,125.0,182.95000000000002,28.450000000000003,16.400000000000002,80.60000000000001,5,
2.04939015319192,63.82397668588193,4.219004621945797,11.10180165558726,13.512956745287095,4.949747468305833,3.7013511046643495,9.638464608017193,4.2,4073.5,17.8,123.25,182.60000000000002,24.5,13.700000000000001,92.9,5,
3.0,63.687125857586004,4.318564576337836,12.056118778446072,12.99038105676658,4.652956049652737,3.40587727318528,9.50789145920377,9.0,4056.05,18.650000000000002,145.35,168.75,21.650000000000002,11.600000000000001,90.4,5,
2.280350850198276,36.785866851278634,3.0740852297878796,7.242237223399963,7.010706098532443,2.7386127875258306,2.5298221281347035,5.5677643628300215,5.2,1353.2,9.450000000000001,52.45,49.150000000000006,7.5,6.4,31.0,5,
1.61245154965971,9.324698386543128,2.073644135332772,3.521363372331802,2.4899799195977463,2.0,1.6733200530681511,2.0615528128088303,2.6,86.95,4.3,12.4,6.2,4.0,2.8000000000000003,4.25,5,
2.04939015319192,7.9498427657407165,2.0124611797498106,4.544227107000705,3.456877203488721,2.5592967784139455,1.9493588689617927,2.5787593916455256,4.2,63.2,4.05,20.650000000000002,11.950000000000001,6.550000000000001,3.8000000000000003,6.65,5,
1.6583123951777,8.366600265340756,2.6645825188948455,2.9832867780352594,2.6832815729997477,2.6362852652928135,2.073644135332772,1.760681686165901,2.75,70.0,7.1000000000000005,8.9,7.2,6.95,4.3,3.1,5,
2.04939015319192,7.2180329730474355,2.224859546128699,1.9748417658131499,4.588027898781785,2.8284271247461903,2.1213203435596424,2.29128784747792,4.2,52.1,4.95,3.9000000000000004,21.05,8.0,4.5,5.25,5,
1.9874606914351791,7.035623639735144,2.355843797877949,3.987480407475377,4.301162633521313,2.479919353527449,2.2135943621178655,2.0371548787463363,3.95,49.5,5.550000000000001,15.9,18.5,6.15,4.9,4.15,5,
2.6172504656604803,6.465291950097845,2.3979157616563596,3.2326459750489227,2.4698178070456938,2.9664793948382653,1.6278820596099706,2.179449471770337,6.8500000000000005,41.800000000000004,5.75,10.450000000000001,6.1000000000000005,8.8,2.6500000000000004,4.75,5,
1.7175564037317668,8.077747210701755,2.6645825188948455,3.2939338184001206,4.658325879540846,3.0659419433511785,2.280350850198276,2.7202941017470885,2.95,65.25,7.1000000000000005,10.850000000000001,21.700000000000003,9.4,5.2,7.4,5,
1.8973665961010275,7.476630257007497,3.492849839314596,4.919349550499537,5.044799302251775,4.012480529547776,3.0903074280724887,2.7294688127912363,3.6,55.900000000000006,12.200000000000001,24.200000000000003,25.450000000000003,16.1,9.55,7.45,5,
2.280350850198276,9.22767576370128,2.4392621835300936,5.347896782848375,4.631414470763764,4.505552130427524,3.9560080889704965,2.9154759474226504,5.2,85.15,5.95,28.6,21.450000000000003,20.3,15.65,8.5,5,
2.1095023109728985,9.40744386111339,2.9410882339705484,3.7815340802378077,4.8166378315169185,3.492849839314596,2.588435821108957,2.4392621835300936,4.45,88.5,8.65,14.3,23.200000000000003,12.200000000000001,6.7,5.95,5,
2.247220505424423,9.50263121456368,3.0,3.7616485747608057,5.079370039680118,4.230839160261236,2.711088342345192,2.258317958127243,5.050000000000001,90.30000000000001,9.0,14.15,25.8,17.900000000000002,7.3500000000000005,5.1000000000000005,5,
1.8027756377319946,10.88806686239573,3.3391615714128,5.882176467941097,6.320601237224193,4.171330722922842,2.4698178070456938,2.958039891549808,3.25,118.55000000000001,11.15,34.6,39.95,17.400000000000002,6.1000000000000005,8.75,5,
1.816590212458495,10.324727599312245,2.6362852652928135,4.330127018922194,3.7682887362833544,3.4132096331752027,2.449489742783178,2.449489742783178,3.3000000000000003,106.60000000000001,6.95,18.75,14.200000000000001,11.65,6.0,6.0,5,
1.9364916731037085,10.812030336620408,2.4698178070456938,5.454356057317857,5.094114250780011,4.031128874149275,2.8896366553599777,2.247220505424423,3.75,116.9,6.1000000000000005,29.75,25.950000000000003,16.25,8.35,5.050000000000001,5,
1.2041594578792296,9.762171889492624,3.3241540277189325,6.953416426476988,5.643580423808985,3.278719262151,3.442382895611701,1.760681686165901,1.4500000000000002,95.30000000000001,11.05,48.35,31.85,10.75,11.850000000000001,3.1,5,
2.085665361461421,10.442700800080408,2.949576240750525,5.639148871948674,7.453187237685633,5.113707070218238,2.9748949561287032,2.5298221281347035,4.3500000000000005,109.05000000000001,8.700000000000001,31.8,55.550000000000004,26.150000000000002,8.85,6.4,5,
2.04939015319192,11.157956802210698,3.2326459750489227,4.832183771339828,5.852349955359813,4.4777226354476225,3.7013511046643495,2.5199206336708304,4.2,124.5,10.450000000000001,23.35,34.25,20.05,13.700000000000001,6.3500000000000005,5,
2.539685019840059,9.917156850630123,2.711088342345192,4.847679857416329,4.711687595755898,4.1952353926806065,3.7013511046643495,2.2693611435820435,6.45,98.35000000000001,7.3500000000000005,23.5,22.200000000000003,17.6,13.700000000000001,5.15,5,
2.1095023109728985,8.17618492941543,3.0413812651491097,5.399073994677235,5.5901699437494745,5.181698563212646,4.0,2.9410882339705484,4.45,66.85000000000001,9.25,29.150000000000002,31.25,26.85,16.0,8.65,5,
2.898275349237888,8.351646544245034,2.819574435974337,4.868264577855234,5.394441583704471,4.1952353926806065,3.398529093593286,2.5787593916455256,8.4,69.75,7.95,23.700000000000003,29.1,17.6,11.55,6.65,5,
2.1563858652847827,7.899367063252599,2.345207879911715,4.189272013130682,3.924283374069717,3.271085446759225,3.0083217912982647,2.3664319132398464,4.65,62.400000000000006,5.5,17.55,15.4,10.700000000000001,9.05,5.6000000000000005,5,
2.224859546128699,7.794228634059948,2.3021728866442674,3.6193922141707713,4.165333119931706,2.711088342345192,2.4392621835300936,2.073644135332772,4.95,60.75,5.300000000000001,13.100000000000001,17.35,7.3500000000000005,5.95,4.3,5,
2.04939015319192,8.772114910328067,3.5777087639996634,3.653765181289022,5.113707070218238,3.7349698793966195,2.9410882339705484,2.224859546128699,4.2,76.95,12.8,13.350000000000001,26.150000000000002,13.950000000000001,8.65,4.95,5,
1.9235384061671346,9.481561052906848,2.6362852652928135,3.6674241641784495,5.531726674375733,4.123105625617661,2.711088342345192,1.9493588689617927,3.7,89.9,6.95,13.450000000000001,30.6,17.0,7.3500000000000005,3.8000000000000003,5,
1.3228756555322954,10.878878618681247,2.2693611435820435,3.8078865529319543,4.012480529547776,4.110960958218893,2.7202941017470885,2.202271554554524,1.75,118.35000000000001,5.15,14.5,16.1,16.900000000000002,7.4,4.8500000000000005,5,
1.6881943016134133,10.124228365658293,2.355843797877949,4.129164564412516,3.640054944640259,3.1859064644147983,3.122498999199199,2.7202941017470885,2.85,102.5,5.550000000000001,17.05,13.25,10.15,9.75,7.4,5,
2.1563858652847827,10.723805294763608,2.711088342345192,3.521363372331802,3.3763886032268267,3.7416573867739413,2.29128784747792,2.5787593916455256,4.65,115.0,7.3500000000000005,12.4,11.4,14.0,5.25,6.65,5,
2.539685019840059,11.406138698087096,2.539685019840059,3.7349698793966195,4.410215414239989,3.271085446759225,2.3874672772626644,2.4289915602982237,6.45,130.1,6.45,13.950000000000001,19.450000000000003,10.700000000000001,5.7,5.9,5,
1.7320508075688772,11.52822622956368,2.4392621835300936,3.6124783736376886,3.943348830626071,3.605551275463989,2.792848008753788,2.6076809620810595,3.0,132.9,5.95,13.05,15.55,13.0,7.800000000000001,6.800000000000001,5,
2.9068883707497264,11.31149857445953,2.5,4.727578661429125,5.656854249492381,3.714835124201342,3.0495901363953815,2.4698178070456938,8.450000000000001,127.95,6.25,22.35,32.0,13.8,9.3,6.1000000000000005,5,
1.9235384061671346,11.6081867662439,2.4899799195977463,4.301162633521313,6.1278054799414114,4.516635916254486,2.8896366553599777,2.4596747752497685,3.7,134.75,6.2,18.5,37.550000000000004,20.400000000000002,8.35,6.050000000000001,5,
2.1095023109728985,11.20714058089752,2.280350850198276,3.3015148038438356,5.458937625582473,3.5777087639996634,2.588435821108957,3.0083217912982647,4.45,125.60000000000001,5.2,10.9,29.8,12.8,6.7,9.05,5,
2.1213203435596424,9.874208829065749,2.692582403567252,3.391164991562634,5.92452529743945,4.381780460041329,3.1937438845342623,2.8635642126552705,4.5,97.5,7.25,11.5,35.1,19.200000000000003,10.200000000000001,8.200000000000001,5,
2.2693611435820435,10.232301793829187,2.792848008753788,4.790615826801393,5.0099900199501395,3.5846896657869842,3.427827300200522,2.247220505424423,5.15,104.7,7.800000000000001,22.950000000000003,25.1,12.850000000000001,11.75,5.050000000000001,5,
2.04939015319192,9.591663046625438,2.32379000772445,3.1622776601683795,4.404543109109048,3.640054944640259,2.2135943621178655,2.3021728866442674,4.2,92.0,5.4,10.0,19.400000000000002,13.25,4.9,5.300000000000001,5,
2.280350850198276,9.058145505565696,2.6457513110645907,3.7282703764614498,5.554277630799526,4.06201920231798,2.1563858652847827,3.057776970284131,5.2,82.05000000000001,7.0,13.9,30.85,16.5,4.65,9.35,5,
1.9364916731037085,8.843076387773658,2.179449471770337,3.788139384975162,4.8373546489791295,3.3241540277189325,2.756809750418044,2.0615528128088303,3.75,78.2,4.75,14.350000000000001,23.400000000000002,11.05,7.6000000000000005,4.25,5,
2.247220505424423,8.712060605849802,3.22490309931942,4.260281680828158,4.669047011971501,3.5071355833500366,2.5199206336708304,2.598076211353316,5.050000000000001,75.9,10.4,18.150000000000002,21.8,12.3,6.3500000000000005,6.75,5,
2.598076211353316,8.077747210701755,2.598076211353316,4.324349662087931,5.103920062069938,3.788139384975162,3.5637059362410923,2.6172504656604803,6.75,65.25,6.75,18.7,26.05,14.350000000000001,12.700000000000001,6.8500000000000005,5,
2.1563858652847827,8.977750274985375,2.6645825188948455,3.598610843089316,4.488875137492688,3.3763886032268267,3.138470965295043,2.924038303442689,4.65,80.60000000000001,7.1000000000000005,12.950000000000001,20.150000000000002,11.4,9.850000000000001,8.55,5,
2.085665361461421,9.316651759081692,3.0413812651491097,3.653765181289022,4.219004621945797,3.721558813185679,2.7658633371878665,2.5787593916455256,4.3500000000000005,86.80000000000001,9.25,13.350000000000001,17.8,13.850000000000001,7.65,6.65,5,
1.9493588689617927,10.220078277586722,2.4392621835300936,2.8284271247461903,4.588027898781785,3.0083217912982647,2.3874672772626644,2.7477263328068173,3.8000000000000003,104.45,5.95,8.0,21.05,9.05,5.7,7.550000000000001,5,
2.6076809620810595,11.128791488746655,2.1563858652847827,4.080441152620633,4.312771730569565,3.2939338184001206,2.598076211353316,2.5495097567963922,6.800000000000001,123.85000000000001,4.65,16.650000000000002,18.6,10.850000000000001,6.75,6.5,5,
2.0976176963403033,11.441153787970862,2.8635642126552705,3.478505426185217,4.8270073544588685,3.420526275297414,1.161895003862225,1.7748239349298849,4.4,130.9,8.200000000000001,12.100000000000001,23.3,11.700000000000001,1.35,3.1500000000000004,5,
2.32379000772445,10.747092630102339,2.8548204847240397,3.847076812334269,4.135214625627067,2.8106938645110393,2.3021728866442674,2.258317958127243,5.4,115.5,8.15,14.8,17.1,7.9,5.300000000000001,5.1000000000000005,5,
2.16794833886788,10.667708282475669,2.4899799195977463,3.7080992435478315,6.216912416947821,4.795831523312719,3.278719262151,2.6551836094703507,4.7,113.80000000000001,6.2,13.75,38.650000000000006,23.0,10.75,7.050000000000001,5,
1.9235384061671346,11.706835610018619,2.449489742783178,3.0983866769659336,5.92452529743945,4.312771730569565,2.4392621835300936,2.6739483914241875,3.7,137.05,6.0,9.600000000000001,35.1,18.6,5.95,7.15,5,
1.7888543819998317,10.959014554237985,1.857417562100671,3.2015621187164243,5.06951674225463,3.5777087639996634,1.9874606914351791,2.0,3.2,120.10000000000001,3.45,10.25,25.700000000000003,12.8,3.95,4.0,5,
1.8439088914585775,10.830512453249845,2.224859546128699,3.4132096331752027,4.5,3.1859064644147983,3.4856850115866753,2.6172504656604803,3.4000000000000004,117.30000000000001,4.95,11.65,20.25,10.15,12.15,6.8500000000000005,5,
1.760681686165901,9.772410142846033,2.1447610589527217,3.024896692450835,3.7013511046643495,2.7838821814150108,1.760681686165901,2.4186773244895647,3.1,95.5,4.6000000000000005,9.15,13.700000000000001,7.75,3.1,5.8500000000000005,5,
2.4083189157584592,8.803408430829505,2.280350850198276,2.692582403567252,4.5934736311423405,4.1952353926806065,2.701851217221259,2.5298221281347035,5.800000000000001,77.5,5.2,7.25,21.1,17.6,7.300000000000001,6.4,5,
2.247220505424423,9.063663718386731,2.1563858652847827,3.9937451095431715,4.888762624632126,3.057776970284131,3.0083217912982647,2.32379000772445,5.050000000000001,82.15,4.65,15.950000000000001,23.900000000000002,9.35,9.05,5.4,5,
2.3769728648009427,9.222255689363639,2.569046515733026,3.2326459750489227,4.505552130427524,3.7416573867739413,2.588435821108957,2.0976176963403033,5.65,85.05000000000001,6.6000000000000005,10.450000000000001,20.3,14.0,6.7,4.4,5,
1.118033988749895,8.958236433584458,2.1330729007701543,3.3391615714128,4.404543109109048,2.9068883707497264,2.588435821108957,1.8973665961010275,1.25,80.25,4.55,11.15,19.400000000000002,8.450000000000001,6.7,3.6,5,
2.073644135332772,9.063663718386731,2.3664319132398464,3.774917217635375,6.053924347066125,3.6742346141747673,3.2171415884290826,2.3345235059857505,4.3,82.15,5.6000000000000005,14.25,36.65,13.5,10.350000000000001,5.45,5,
1.8439088914585775,8.955445270895245,2.345207879911715,5.157518783291051,5.333854141237834,4.306971093471606,3.8858718455450894,2.6172504656604803,3.4000000000000004,80.2,5.5,26.6,28.450000000000003,18.55,15.100000000000001,6.8500000000000005,5,
2.5099800796022267,10.200490184299968,3.0,3.646916505762094,5.059644256269407,3.7013511046643495,2.5,2.29128784747792,6.300000000000001,104.05000000000001,9.0,13.3,25.6,13.700000000000001,6.25,5.25,5,
2.569046515733026,10.858176642512316,3.248076353782343,3.3241540277189325,4.732863826479693,2.9916550603303182,2.2693611435820435,3.138470965295043,6.6000000000000005,117.9,10.55,11.05,22.400000000000002,8.950000000000001,5.15,9.850000000000001,5,
2.0615528128088303,10.564090116995406,2.6076809620810595,4.230839160261236,5.585696017507576,3.2015621187164243,3.0083217912982647,2.5298221281347035,4.25,111.60000000000001,6.800000000000001,17.900000000000002,31.200000000000003,10.25,9.05,6.4,5,
1.91049731745428,12.095453691366853,2.539685019840059,3.5846896657869842,3.968626966596886,3.278719262151,3.0,2.247220505424423,3.6500000000000004,146.3,6.45,12.850000000000001,15.75,10.75,9.0,5.050000000000001,5,
2.179449471770337,10.16366075781753,2.345207879911715,4.55521678957215,4.669047011971501,4.511097427455985,3.4641016151377544,2.1908902300206643,4.75,103.30000000000001,5.5,20.75,21.8,20.35,12.0,4.800000000000001,5,
1.9235384061671346,8.831760866327848,3.024896692450835,3.4856850115866753,3.7013511046643495,2.4083189157584592,2.4083189157584592,2.4392621835300936,3.7,78.0,9.15,12.15,13.700000000000001,5.800000000000001,5.800000000000001,5.95,5,
2.073644135332772,10.423531071570709,2.0615528128088303,2.9664793948382653,3.714835124201342,3.7682887362833544,2.756809750418044,2.7386127875258306,4.3,108.65,4.25,8.8,13.8,14.200000000000001,7.6000000000000005,7.5,5,
1.760681686165901,9.869143833180262,1.5491933384829668,4.652956049652737,4.544227107000705,2.8106938645110393,1.8973665961010275,2.5199206336708304,3.1,97.4,2.4000000000000004,21.650000000000002,20.650000000000002,7.9,3.6,6.3500000000000005,5,
1.760681686165901,10.564090116995406,2.345207879911715,4.33589667773576,4.604345773288535,3.847076812334269,2.5787593916455256,2.588435821108957,3.1,111.60000000000001,5.5,18.8,21.200000000000003,14.8,6.65,6.7,5,
1.6733200530681511,9.332738076256078,2.756809750418044,4.39317652729776,4.177319714841085,3.714835124201342,2.4596747752497685,2.932575659723036,2.8000000000000003,87.10000000000001,7.6000000000000005,19.3,17.45,13.8,6.050000000000001,8.6,5,
2.4596747752497685,9.284395510748128,2.1213203435596424,3.7815340802378077,5.9455865984779,3.794733192202055,2.6267851073127395,2.04939015319192,6.050000000000001,86.2,4.5,14.3,35.35,14.4,6.9,4.2,5,
2.6267851073127395,8.952653238007155,1.8973665961010275,2.539685019840059,4.455333881989093,3.646916505762094,2.4392621835300936,2.6172504656604803,6.9,80.15,3.6,6.45,19.85,13.3,5.95,6.8500000000000005,5,
1.91049731745428,8.994442728707543,3.2093613071762426,4.398863489584555,4.743416490252569,4.201190307520001,2.8722813232690143,2.9068883707497264,3.6500000000000004,80.9,10.3,19.35,22.5,17.650000000000002,8.25,8.450000000000001,5,
2.2135943621178655,8.432081593533118,2.7477263328068173,4.183300132670378,4.0743097574926725,4.012480529547776,2.692582403567252,2.792848008753788,4.9,71.10000000000001,7.550000000000001,17.5,16.6,16.1,7.25,7.800000000000001,5,
1.7748239349298849,7.238784428341543,2.4596747752497685,3.8013155617496426,3.892300091205713,3.3466401061363023,2.4083189157584592,2.5,3.1500000000000004,52.400000000000006,6.050000000000001,14.450000000000001,15.15,11.200000000000001,5.800000000000001,6.25,5,
1.6583123951777,8.396427811873332,3.2171415884290826,3.8340579025361627,5.576737397439475,3.5355339059327378,2.6551836094703507,2.7202941017470885,2.75,70.5,10.350000000000001,14.700000000000001,31.1,12.5,7.050000000000001,7.4,5,
2.0124611797498106,8.491171886141512,2.7202941017470885,3.3166247903554,4.358898943540674,2.8722813232690143,2.569046515733026,2.6076809620810595,4.05,72.10000000000001,7.4,11.0,19.0,8.25,6.6000000000000005,6.800000000000001,5,
1.9874606914351791,9.67987603226405,1.9235384061671346,3.1780497164141406,5.445181356024793,3.6124783736376886,2.8284271247461903,2.32379000772445,3.95,93.7,3.7,10.100000000000001,29.650000000000002,13.05,8.0,5.4,5,
2.7748873851023217,9.473647660748208,2.588435821108957,4.410215414239989,4.790615826801393,3.646916505762094,3.427827300200522,2.4596747752497685,7.7,89.75,6.7,19.450000000000003,22.950000000000003,13.3,11.75,6.050000000000001,5,
2.3979157616563596,10.114346246792227,3.248076353782343,3.930648801406709,3.96232255123179,2.8460498941515415,2.3979157616563596,2.6267851073127395,5.75,102.30000000000001,10.55,15.450000000000001,15.700000000000001,8.1,5.75,6.9,5,
2.0,10.156278846112881,2.4596747752497685,3.4351128074635335,4.658325879540846,4.527692569068709,2.8635642126552705,2.7748873851023217,4.0,103.15,6.050000000000001,11.8,21.700000000000003,20.5,8.200000000000001,7.7,5,
2.258317958127243,10.749418588928426,2.6645825188948455,2.8548204847240397,5.962382074305537,3.331666249791536,2.692582403567252,2.345207879911715,5.1000000000000005,115.55000000000001,7.1000000000000005,8.15,35.550000000000004,11.100000000000001,7.25,5.5,5,
2.1095023109728985,10.418733128360664,2.224859546128699,3.556683848755748,5.044799302251775,2.9916550603303182,3.0740852297878796,2.8548204847240397,4.45,108.55000000000001,4.95,12.65,25.450000000000003,8.950000000000001,9.450000000000001,8.15,5,
2.5787593916455256,10.31746092796091,2.449489742783178,3.398529093593286,5.869412236331676,3.8987177379235853,2.5099800796022267,2.756809750418044,6.65,106.45,6.0,11.55,34.45,15.200000000000001,6.300000000000001,7.6000000000000005,5,
2.4596747752497685,10.08959860450355,2.1447610589527217,2.7658633371878665,4.266145801540309,3.866522985836241,3.0,2.280350850198276,6.050000000000001,101.80000000000001,4.6000000000000005,7.65,18.2,14.950000000000001,9.0,5.2,5,
2.4392621835300936,8.874119674649425,2.073644135332772,3.420526275297414,3.420526275297414,3.1622776601683795,2.7838821814150108,2.280350850198276,5.95,78.75,4.3,11.700000000000001,11.700000000000001,10.0,7.75,5.2,5,
2.073644135332772,9.00555384193554,2.8284271247461903,4.909175083453431,5.361902647381804,4.129164564412516,2.5099800796022267,1.760681686165901,4.3,81.10000000000001,8.0,24.1,28.75,17.05,6.300000000000001,3.1,5,
2.23606797749979,8.921883209278185,3.0740852297878796,5.5677643628300215,6.51536645170477,5.200961449578338,3.5071355833500366,2.3769728648009427,5.0,79.60000000000001,9.450000000000001,31.0,42.45,27.05,12.3,5.65,5,
2.2693611435820435,8.689073598491383,2.0976176963403033,4.219004621945797,5.205766033928148,3.591656999213594,2.7748873851023217,2.345207879911715,5.15,75.5,4.4,17.8,27.1,12.9,7.7,5.5,5,
2.4392621835300936,7.742738533619742,2.32379000772445,4.620606020859169,5.490901565316938,3.626292872893749,3.22490309931942,2.3021728866442674,5.95,59.95,5.4,21.35,30.150000000000002,13.15,10.4,5.300000000000001,5,
1.8841443681416772,7.956129712366434,2.692582403567252,4.533210782657255,7.297259759663212,5.748912940721924,2.898275349237888,2.4899799195977463,3.5500000000000003,63.300000000000004,7.25,20.55,53.25,33.050000000000004,8.4,6.2,5,
1.7175564037317668,8.79772697916911,1.9364916731037085,3.361547262794322,4.620606020859169,1.9748417658131499,1.9493588689617927,2.32379000772445,2.95,77.4,3.75,11.3,21.35,3.9000000000000004,3.8000000000000003,5.4,5,
2.1095023109728985,7.76530746332687,2.1447610589527217,3.905124837953327,2.7386127875258306,2.3021728866442674,2.0615528128088303,2.085665361461421,4.45,60.300000000000004,4.6000000000000005,15.25,7.5,5.300000000000001,4.25,4.3500000000000005,5,
1.6583123951777,8.240145629781066,3.640054944640259,2.8106938645110393,3.082207001484488,2.479919353527449,1.91049731745428,1.760681686165901,2.75,67.9,13.25,7.9,9.5,6.15,3.6500000000000004,3.1,5,
1.6733200530681511,6.652067347825035,3.1304951684997055,4.0,2.5,2.9410882339705484,2.3664319132398464,2.3664319132398464,2.8000000000000003,44.25,9.8,16.0,6.25,8.65,5.6000000000000005,5.6000000000000005,5,
1.8027756377319946,8.17618492941543,2.6457513110645907,3.840572873934304,3.361547262794322,2.23606797749979,2.598076211353316,2.898275349237888,3.25,66.85000000000001,7.0,14.75,11.3,5.0,6.75,8.4,5,
1.7320508075688772,7.317786550590281,2.202271554554524,3.24037034920393,2.3874672772626644,1.8439088914585775,1.8708286933869707,2.1213203435596424,3.0,53.550000000000004,4.8500000000000005,10.5,5.7,3.4000000000000004,3.5,4.5,5,
1.9874606914351791,9.731392500562292,2.539685019840059,2.5787593916455256,2.7386127875258306,1.7320508075688772,1.9621416870348585,1.8708286933869707,3.95,94.7,6.45,6.65,7.5,3.0,3.85,3.5,5,
2.4083189157584592,7.842193570679061,2.7202941017470885,3.22490309931942,3.0903074280724887,1.8841443681416772,1.8841443681416772,2.598076211353316,5.800000000000001,61.5,7.4,10.4,9.55,3.5500000000000003,3.5500000000000003,6.75,5,
1.5968719422671311,8.351646544245034,1.760681686165901,3.0166206257996713,2.0976176963403033,1.8303005217723127,2.16794833886788,2.224859546128699,2.5500000000000003,69.75,3.1,9.1,4.4,3.35,4.7,4.95,5,
1.5811388300841898,7.307530362578044,2.5298221281347035,2.8809720581775866,3.271085446759225,2.258317958127243,1.9493588689617927,2.479919353527449,2.5,53.400000000000006,6.4,8.3,10.700000000000001,5.1000000000000005,3.8000000000000003,6.15,5,
1.51657508881031,8.378544026261364,2.8896366553599777,3.5496478698597698,2.7386127875258306,1.9493588689617927,1.6583123951777,2.4899799195977463,2.3000000000000003,70.2,8.35,12.600000000000001,7.5,3.8000000000000003,2.75,6.2,5,
2.0371548787463363,6.18465843842649,1.9748417658131499,3.7013511046643495,2.932575659723036,2.3130067012440754,2.4698178070456938,2.6172504656604803,4.15,38.25,3.9000000000000004,13.700000000000001,8.6,5.3500000000000005,6.1000000000000005,6.8500000000000005,5,
1.5811388300841898,6.910137480542627,1.9621416870348585,3.774917217635375,2.5298221281347035,2.280350850198276,2.4289915602982237,1.7320508075688772,2.5,47.75,3.85,14.25,6.4,5.2,5.9,3.0,5,
1.6881943016134133,5.974947698515862,2.1095023109728985,2.6832815729997477,2.5199206336708304,2.0,2.588435821108957,2.32379000772445,2.85,35.7,4.45,7.2,6.3500000000000005,4.0,6.7,5.4,5,
1.7175564037317668,6.34428877022476,2.449489742783178,2.9068883707497264,3.4351128074635335,1.4142135623730951,1.8303005217723127,2.0,2.95,40.25,6.0,8.450000000000001,11.8,2.0,3.35,4.0,5,
2.04939015319192,6.383572667401852,2.6645825188948455,3.7349698793966195,3.681032463861192,3.146426544510455,1.857417562100671,2.5592967784139455,4.2,40.75,7.1000000000000005,13.950000000000001,13.55,9.9,3.45,6.550000000000001,5,
2.179449471770337,6.06217782649107,2.085665361461421,2.819574435974337,2.3874672772626644,1.70293863659264,1.7320508075688772,1.61245154965971,4.75,36.75,4.3500000000000005,7.95,5.7,2.9000000000000004,3.0,2.6,5,
2.16794833886788,6.410928169929843,2.4289915602982237,2.8284271247461903,2.4899799195977463,1.9621416870348585,1.9748417658131499,2.819574435974337,4.7,41.1,5.9,8.0,6.2,3.85,3.9000000000000004,7.95,5,
2.4289915602982237,6.648308055437865,2.5099800796022267,3.24037034920393,3.7815340802378077,2.4289915602982237,1.7748239349298849,1.8303005217723127,5.9,44.2,6.300000000000001,10.5,14.3,5.9,3.1500000000000004,3.35,5,
2.0615528128088303,7.493330367733695,2.1095023109728985,3.122498999199199,3.5,2.0976176963403033,1.91049731745428,2.0615528128088303,4.25,56.150000000000006,4.45,9.75,12.25,4.4,3.6500000000000004,4.25,5,
1.6583123951777,8.080841540334768,1.9364916731037085,3.0659419433511785,2.3664319132398464,2.16794833886788,1.61245154965971,2.345207879911715,2.75,65.3,3.75,9.4,5.6000000000000005,4.7,2.6,5.5,5,
1.70293863659264,7.409453421137082,2.3664319132398464,2.756809750418044,2.9916550603303182,2.1095023109728985,1.466287829861518,2.1330729007701543,2.9000000000000004,54.900000000000006,5.6000000000000005,7.6000000000000005,8.950000000000001,4.45,2.15,4.55,5,
2.0248456731316584,8.258329128825032,2.1330729007701543,2.949576240750525,1.9748417658131499,2.449489742783178,2.04939015319192,2.0371548787463363,4.1000000000000005,68.2,4.55,8.700000000000001,3.9000000000000004,6.0,4.2,4.15,5,
2.1908902300206643,8.921883209278185,2.6832815729997477,2.04939015319192,2.29128784747792,2.1213203435596424,1.449137674618944,2.2135943621178655,4.800000000000001,79.60000000000001,7.2,4.2,5.25,4.5,2.1,4.9,5,
2.280350850198276,7.7781745930520225,2.3021728866442674,2.6076809620810595,2.0371548787463363,2.449489742783178,2.0976176963403033,2.202271554554524,5.2,60.5,5.300000000000001,6.800000000000001,4.15,6.0,4.4,4.8500000000000005,5,
1.6278820596099706,6.837397165588672,1.9874606914351791,2.8460498941515415,1.9493588689617927,2.1447610589527217,2.1447610589527217,2.7294688127912363,2.6500000000000004,46.75,3.95,8.1,3.8000000000000003,4.6000000000000005,4.6000000000000005,7.45,5,
1.8439088914585775,8.018728078691781,2.5592967784139455,3.1144823004794873,3.0495901363953815,2.2135943621178655,2.0,2.0976176963403033,3.4000000000000004,64.3,6.550000000000001,9.700000000000001,9.3,4.9,4.0,4.4,5,
1.9364916731037085,7.971825386948713,3.7282703764614498,3.714835124201342,2.8635642126552705,2.1563858652847827,2.1447610589527217,2.1447610589527217,3.75,63.550000000000004,13.9,13.8,8.200000000000001,4.65,4.6000000000000005,4.6000000000000005,5,
2.479919353527449,9.35681569766125,2.479919353527449,2.8896366553599777,2.5199206336708304,1.6583123951777,1.70293863659264,2.449489742783178,6.15,87.55000000000001,6.15,8.35,6.3500000000000005,2.75,2.9000000000000004,6.0,5,
2.4392621835300936,9.156964562561111,3.122498999199199,2.224859546128699,2.6076809620810595,2.5787593916455256,2.3664319132398464,2.4899799195977463,5.95,83.85000000000001,9.75,4.95,6.800000000000001,6.65,5.6000000000000005,6.2,5,
2.3664319132398464,7.286974680894672,3.905124837953327,3.286335345030997,2.5199206336708304,2.1563858652847827,2.23606797749979,2.29128784747792,5.6000000000000005,53.1,15.25,10.8,6.3500000000000005,4.65,5.0,5.25,5,
2.3769728648009427,7.179832867135557,2.1563858652847827,2.449489742783178,2.4899799195977463,2.2693611435820435,2.4186773244895647,2.5298221281347035,5.65,51.550000000000004,4.65,6.0,6.2,5.15,5.8500000000000005,6.4,5,
2.1095023109728985,5.783597496368502,2.32379000772445,3.3391615714128,2.5,1.5,1.4142135623730951,2.5495097567963922,4.45,33.45,5.4,11.15,6.25,2.25,2.0,6.5,5,
2.247220505424423,7.687652437513028,2.23606797749979,3.22490309931942,2.0124611797498106,1.5329709716755893,2.479919353527449,2.5298221281347035,5.050000000000001,59.1,5.0,10.4,4.05,2.35,6.15,6.4,5,
2.2135943621178655,6.572670690061994,2.3664319132398464,3.3241540277189325,2.5298221281347035,2.0,2.280350850198276,2.3769728648009427,4.9,43.2,5.6000000000000005,11.05,6.4,4.0,5.2,5.65,5,
1.8303005217723127,7.063993204979744,1.8439088914585775,2.5592967784139455,2.247220505424423,1.857417562100671,1.4832396974191326,2.2135943621178655,3.35,49.900000000000006,3.4000000000000004,6.550000000000001,5.050000000000001,3.45,2.2,4.9,5,
2.04939015319192,7.861297602813418,2.0248456731316584,3.442382895611701,2.0371548787463363,2.0124611797498106,1.449137674618944,2.1563858652847827,4.2,61.800000000000004,4.1000000000000005,11.850000000000001,4.15,4.05,2.1,4.65,5,
2.5495097567963922,7.749193506423749,2.7477263328068173,2.3130067012440754,3.138470965295043,1.8708286933869707,1.51657508881031,2.6832815729997477,6.5,60.050000000000004,7.550000000000001,5.3500000000000005,9.850000000000001,3.5,2.3000000000000003,7.2,5,
2.1447610589527217,7.784600182411426,2.9068883707497264,3.22490309931942,2.4596747752497685,1.857417562100671,1.9621416870348585,2.258317958127243,4.6000000000000005,60.6,8.450000000000001,10.4,6.050000000000001,3.45,3.85,5.1000000000000005,5,
2.479919353527449,12.485992151206888,2.8896366553599777,2.8372521918222215,2.7748873851023217,1.6431676725154984,1.8303005217723127,2.756809750418044,6.15,155.9,8.35,8.05,7.7,2.7,3.35,7.6000000000000005,5,
2.5099800796022267,9.289779329994873,2.4698178070456938,3.5,2.6645825188948455,2.1213203435596424,2.5495097567963922,2.5787593916455256,6.300000000000001,86.30000000000001,6.1000000000000005,12.25,7.1000000000000005,4.5,6.5,6.65,5,
1.9235384061671346,6.618156843109719,2.9068883707497264,2.8722813232690143,2.3345235059857505,2.085665361461421,2.3664319132398464,2.179449471770337,3.7,43.800000000000004,8.450000000000001,8.25,5.45,4.3500000000000005,5.6000000000000005,4.75,5,
2.5298221281347035,8.200609733428363,2.569046515733026,2.280350850198276,2.224859546128699,2.179449471770337,2.345207879911715,1.91049731745428,6.4,67.25,6.6000000000000005,5.2,4.95,4.75,5.5,3.6500000000000004,5,
2.0248456731316584,6.892024376045111,2.3874672772626644,2.7477263328068173,1.9621416870348585,2.04939015319192,1.8303005217723127,2.1330729007701543,4.1000000000000005,47.5,5.7,7.550000000000001,3.85,4.2,3.35,4.55,5,
2.345207879911715,7.6583287994183165,2.3345235059857505,3.3689761055846033,2.3130067012440754,1.6881943016134133,2.0371548787463363,1.91049731745428,5.5,58.650000000000006,5.45,11.350000000000001,5.3500000000000005,2.85,4.15,3.6500000000000004,5,
2.8548204847240397,10.276186062932103,4.03732584763727,3.3166247903554,3.24037034920393,2.202271554554524,1.449137674618944,2.0976176963403033,8.15,105.60000000000001,16.3,11.0,10.5,4.8500000000000005,2.1,4.4,5,
2.3021728866442674,9.322016949137135,2.224859546128699,3.0740852297878796,2.4289915602982237,1.9621416870348585,1.9493588689617927,2.2135943621178655,5.300000000000001,86.9,4.95,9.450000000000001,5.9,3.85,3.8000000000000003,4.9,5,
2.0976176963403033,6.996427659884722,2.7477263328068173,1.9621416870348585,2.3130067012440754,1.857417562100671,1.6881943016134133,2.2693611435820435,4.4,48.95,7.550000000000001,3.85,5.3500000000000005,3.45,2.85,5.15,5,
2.247220505424423,6.931810730249348,1.7748239349298849,2.32379000772445,2.80178514522438,2.4186773244895647,1.7175564037317668,1.7888543819998317,5.050000000000001,48.050000000000004,3.1500000000000004,5.4,7.8500000000000005,5.8500000000000005,2.95,3.2,5,
2.085665361461421,6.407027391856539,2.0615528128088303,2.8372521918222215,2.588435821108957,2.4596747752497685,2.1908902300206643,1.816590212458495,4.3500000000000005,41.050000000000004,4.25,8.05,6.7,6.050000000000001,4.800000000000001,3.3000000000000003,5,
1.7748239349298849,6.260990336999411,2.6832815729997477,2.949576240750525,2.8372521918222215,2.1213203435596424,1.7888543819998317,1.70293863659264,3.1500000000000004,39.2,7.2,8.700000000000001,8.05,4.5,3.2,2.9000000000000004,5,
2.0248456731316584,7.602631123499285,3.4641016151377544,2.7202941017470885,2.9832867780352594,2.29128784747792,1.8027756377319946,2.32379000772445,4.1000000000000005,57.800000000000004,12.0,7.4,8.9,5.25,3.25,5.4,5,
1.9493588689617927,7.959271323431562,2.8460498941515415,2.6076809620810595,2.23606797749979,1.8841443681416772,2.5592967784139455,1.9748417658131499,3.8000000000000003,63.35,8.1,6.800000000000001,5.0,3.5500000000000003,6.550000000000001,3.9000000000000004,5,
1.9621416870348585,8.882567196480982,2.692582403567252,3.1937438845342623,2.449489742783178,2.179449471770337,2.073644135332772,2.539685019840059,3.85,78.9,7.25,10.200000000000001,6.0,4.75,4.3,6.45,5,
2.0615528128088303,9.311283477587825,3.8600518131237567,3.3391615714128,2.6076809620810595,2.0976176963403033,1.70293863659264,1.8303005217723127,4.25,86.7,14.9,11.15,6.800000000000001,4.4,2.9000000000000004,3.35,5,
1.9364916731037085,6.782329983125268,2.247220505424423,2.932575659723036,2.345207879911715,2.1908902300206643,1.7888543819998317,2.6739483914241875,3.75,46.0,5.050000000000001,8.6,5.5,4.800000000000001,3.2,7.15,5,
2.1563858652847827,10.788883167408942,3.1859064644147983,3.122498999199199,2.6172504656604803,2.085665361461421,2.280350850198276,2.2135943621178655,4.65,116.4,10.15,9.75,6.8500000000000005,4.3500000000000005,5.2,4.9,5,
2.0,9.23038460737146,4.674398357008098,3.9496835316262997,2.8372521918222215,2.6267851073127395,2.247220505424423,3.0,4.0,85.2,21.85,15.600000000000001,8.05,6.9,5.050000000000001,9.0,5,
2.6739483914241875,10.009995004993758,3.52845575287547,2.7294688127912363,2.539685019840059,2.345207879911715,2.5495097567963922,2.202271554554524,7.15,100.2,12.450000000000001,7.45,6.45,5.5,6.5,4.8500000000000005,5,
2.085665361461421,7.940403012442126,3.0983866769659336,3.1622776601683795,2.9916550603303182,1.8973665961010275,2.3664319132398464,2.224859546128699,4.3500000000000005,63.050000000000004,9.600000000000001,10.0,8.950000000000001,3.6,5.6000000000000005,4.95,5,
1.70293863659264,7.861297602813418,3.0740852297878796,3.0083217912982647,2.9748949561287032,2.29128784747792,2.8284271247461903,1.9874606914351791,2.9000000000000004,61.800000000000004,9.450000000000001,9.05,8.85,5.25,8.0,3.95,5,
2.179449471770337,11.018166816671457,4.716990566028302,4.272001872658765,2.598076211353316,2.0124611797498106,1.857417562100671,1.9874606914351791,4.75,121.4,22.25,18.25,6.75,4.05,3.45,3.95,5,
2.258317958127243,8.0156097709407,3.24037034920393,2.6076809620810595,2.5,2.6076809620810595,2.0124611797498106,2.3130067012440754,5.1000000000000005,64.25,10.5,6.800000000000001,6.25,6.800000000000001,4.05,5.3500000000000005,5,
2.1447610589527217,7.826237921249264,2.819574435974337,2.692582403567252,2.932575659723036,2.247220505424423,1.5491933384829668,1.8841443681416772,4.6000000000000005,61.25,7.95,7.25,8.6,5.050000000000001,2.4000000000000004,3.5500000000000003,5,
2.6076809620810595,6.2289646009589745,3.0659419433511785,2.701851217221259,3.2326459750489227,2.23606797749979,2.4596747752497685,2.539685019840059,6.800000000000001,38.800000000000004,9.4,7.300000000000001,10.450000000000001,5.0,6.050000000000001,6.45,5,
2.8548204847240397,7.358668357794092,2.898275349237888,2.819574435974337,3.2015621187164243,1.857417562100671,1.746424919657298,1.9874606914351791,8.15,54.150000000000006,8.4,7.95,10.25,3.45,3.0500000000000003,3.95,5,
3.1304951684997055,7.826237921249264,2.9832867780352594,3.3689761055846033,2.6551836094703507,1.6733200530681511,2.2693611435820435,1.9748417658131499,9.8,61.25,8.9,11.350000000000001,7.050000000000001,2.8000000000000003,5.15,3.9000000000000004,5,
2.8284271247461903,9.648834126463155,2.7294688127912363,2.179449471770337,2.9916550603303182,2.3664319132398464,2.0371548787463363,2.202271554554524,8.0,93.10000000000001,7.45,4.75,8.950000000000001,5.6000000000000005,4.15,4.8500000000000005,5,
2.355843797877949,9.40744386111339,3.2326459750489227,3.7416573867739413,2.792848008753788,1.9364916731037085,2.0,1.6733200530681511,5.550000000000001,88.5,10.450000000000001,14.0,7.800000000000001,3.75,4.0,2.8000000000000003,5,
2.9832867780352594,10.418733128360664,3.6124783736376886,3.398529093593286,3.6945906403822333,2.258317958127243,2.0,1.5968719422671311,8.9,108.55000000000001,13.05,11.55,13.65,5.1000000000000005,4.0,2.5500000000000003,5,
3.442382895611701,6.164414002968976,3.7416573867739413,3.4856850115866753,3.263433774416144,2.1095023109728985,2.3874672772626644,2.179449471770337,11.850000000000001,38.0,14.0,12.15,10.65,4.45,5.7,4.75,5,
1.91049731745428,8.774964387392123,2.6362852652928135,2.711088342345192,2.949576240750525,2.0124611797498106,1.6431676725154984,2.16794833886788,3.6500000000000004,77.0,6.95,7.3500000000000005,8.700000000000001,4.05,2.7,4.7,5,
2.6362852652928135,12.425779653607254,2.9916550603303182,2.80178514522438,2.539685019840059,1.91049731745428,2.588435821108957,2.202271554554524,6.95,154.4,8.950000000000001,7.8500000000000005,6.45,3.6500000000000004,6.7,4.8500000000000005,5,
1.5,8.774964387392123,4.2130748865881795,3.2939338184001206,3.0983866769659336,2.6267851073127395,2.0976176963403033,2.280350850198276,2.25,77.0,17.75,10.850000000000001,9.600000000000001,6.9,4.4,5.2,5,
2.1908902300206643,10.51427600931229,2.5298221281347035,3.2093613071762426,2.6076809620810595,1.760681686165901,2.0124611797498106,2.1908902300206643,4.800000000000001,110.55000000000001,6.4,10.3,6.800000000000001,3.1,4.05,4.800000000000001,5,
1.8973665961010275,9.0,2.598076211353316,3.082207001484488,2.6457513110645907,2.1908902300206643,2.355843797877949,2.3979157616563596,3.6,81.0,6.75,9.5,7.0,4.800000000000001,5.550000000000001,5.75,5,
2.756809750418044,9.410100955887774,3.4132096331752027,3.0903074280724887,3.3015148038438356,1.8708286933869707,2.0371548787463363,2.1330729007701543,7.6000000000000005,88.55000000000001,11.65,9.55,10.9,3.5,4.15,4.55,5,
2.6739483914241875,9.924716620639604,2.6551836094703507,3.255764119219941,2.4392621835300936,1.760681686165901,1.5968719422671311,2.23606797749979,7.15,98.5,7.050000000000001,10.600000000000001,5.95,3.1,2.5500000000000003,5.0,5,
1.8841443681416772,5.504543577809154,2.958039891549808,3.8535697735995385,2.3021728866442674,1.816590212458495,2.6457513110645907,1.816590212458495,3.5500000000000003,30.3,8.75,14.850000000000001,5.300000000000001,3.3000000000000003,7.0,3.3000000000000003,5,
2.6362852652928135,7.355270219373317,3.057776970284131,2.756809750418044,2.2693611435820435,2.3979157616563596,2.1330729007701543,2.073644135332772,6.95,54.1,9.35,7.6000000000000005,5.15,5.75,4.55,4.3,5,
2.1095023109728985,7.242237223399963,3.1144823004794873,5.371219600798314,2.588435821108957,1.8708286933869707,2.1908902300206643,2.04939015319192,4.45,52.45,9.700000000000001,28.85,6.7,3.5,4.800000000000001,4.2,5,
2.073644135332772,7.368853370776216,2.1563858652847827,2.9664793948382653,2.3664319132398464,2.569046515733026,2.224859546128699,2.711088342345192,4.3,54.300000000000004,4.65,8.8,5.6000000000000005,6.6000000000000005,4.95,7.3500000000000005,5,
2.7838821814150108,8.0156097709407,3.9370039370059056,4.0743097574926725,2.7748873851023217,1.760681686165901,2.1908902300206643,2.1908902300206643,7.75,64.25,15.5,16.6,7.7,3.1,4.800000000000001,4.800000000000001,5,
1.8027756377319946,7.582875444051551,2.3874672772626644,3.5071355833500366,2.5,1.9621416870348585,2.1447610589527217,1.8303005217723127,3.25,57.5,5.7,12.3,6.25,3.85,4.6000000000000005,3.35,5,
1.8027756377319946,9.45515732285825,1.8303005217723127,4.049691346263317,2.756809750418044,2.1330729007701543,1.6583123951777,1.70293863659264,3.25,89.4,3.35,16.400000000000002,7.6000000000000005,4.55,2.75,2.9000000000000004,5,
2.3130067012440754,6.98212002188447,3.492849839314596,4.189272013130682,2.355843797877949,2.0371548787463363,2.2135943621178655,3.0083217912982647,5.3500000000000005,48.75,12.200000000000001,17.55,5.550000000000001,4.15,4.9,9.05,5,
2.5592967784139455,9.39946807005588,4.06201920231798,3.82099463490856,3.7349698793966195,1.91049731745428,1.816590212458495,2.0371548787463363,6.550000000000001,88.35000000000001,16.5,14.600000000000001,13.950000000000001,3.6500000000000004,3.3000000000000003,4.15,5,
2.3664319132398464,11.85537852622176,2.9154759474226504,2.792848008753788,2.711088342345192,1.4317821063276353,2.2135943621178655,2.5495097567963922,5.6000000000000005,140.55,8.5,7.800000000000001,7.3500000000000005,2.0500000000000003,4.9,6.5,5,
2.2693611435820435,9.521029356114811,3.057776970284131,3.4132096331752027,2.23606797749979,2.1213203435596424,2.4899799195977463,1.70293863659264,5.15,90.65,9.35,11.65,5.0,4.5,6.2,2.9000000000000004,5,
2.202271554554524,9.919677414109795,3.3689761055846033,3.8858718455450894,2.3769728648009427,2.0124611797498106,2.280350850198276,2.3664319132398464,4.8500000000000005,98.4,11.350000000000001,15.100000000000001,5.65,4.05,5.2,5.6000000000000005,5,
1.9874606914351791,9.841239759298622,3.4856850115866753,2.539685019840059,3.3466401061363023,2.247220505424423,2.280350850198276,1.9748417658131499,3.95,96.85000000000001,12.15,6.45,11.200000000000001,5.050000000000001,5.2,3.9000000000000004,5,
2.449489742783178,10.03493896344168,3.905124837953327,4.092676385936225,3.5142566781611158,2.1563858652847827,2.1447610589527217,2.345207879911715,6.0,100.7,15.25,16.75,12.350000000000001,4.65,4.6000000000000005,5.5,5,
2.32379000772445,7.774959806970066,3.024896692450835,5.196152422706632,4.09878030638384,1.4832396974191326,2.5,2.355843797877949,5.4,60.45,9.15,27.0,16.8,2.2,6.25,5.550000000000001,5,
2.179449471770337,9.651424765287247,3.0083217912982647,3.263433774416144,3.456877203488721,1.7748239349298849,1.760681686165901,2.3130067012440754,4.75,93.15,9.05,10.65,11.950000000000001,3.1500000000000004,3.1,5.3500000000000005,5,
1.8841443681416772,6.924593850905626,4.283689998120779,4.0,4.0,2.0124611797498106,2.0976176963403033,2.6076809620810595,3.5500000000000003,47.95,18.35,16.0,16.0,4.05,4.4,6.800000000000001,5,
2.1447610589527217,7.214568594171102,2.8809720581775866,3.5637059362410923,3.1859064644147983,2.0615528128088303,1.760681686165901,2.1330729007701543,4.6000000000000005,52.050000000000004,8.3,12.700000000000001,10.15,4.25,3.1,4.55,5,
2.0371548787463363,8.049844718999243,5.621387729022079,5.504543577809154,3.03315017762062,1.7175564037317668,2.16794833886788,2.2135943621178655,4.15,64.8,31.6,30.3,9.200000000000001,2.95,4.7,4.9,5,
2.7386127875258306,8.399404740813482,2.8548204847240397,2.1563858652847827,3.24037034920393,2.5,1.8303005217723127,2.085665361461421,7.5,70.55,8.15,4.65,10.5,6.25,3.35,4.3500000000000005,5,
1.6583123951777,6.992853494818835,3.40587727318528,3.8535697735995385,2.949576240750525,2.16794833886788,1.7175564037317668,2.247220505424423,2.75,48.900000000000006,11.600000000000001,14.850000000000001,8.700000000000001,4.7,2.95,5.050000000000001,5,
2.588435821108957,8.845903006477066,2.598076211353316,2.9664793948382653,3.0166206257996713,1.8708286933869707,1.9748417658131499,2.3979157616563596,6.7,78.25,6.75,8.8,9.1,3.5,3.9000000000000004,5.75,5,
2.8809720581775866,7.655063683601855,3.0983866769659336,3.442382895611701,3.0983866769659336,2.32379000772445,2.4289915602982237,2.0124611797498106,8.3,58.6,9.600000000000001,11.850000000000001,9.600000000000001,5.4,5.9,4.05,5,
2.4392621835300936,9.115920140062657,3.331666249791536,3.943348830626071,2.6739483914241875,1.746424919657298,1.8027756377319946,2.280350850198276,5.95,83.10000000000001,11.100000000000001,15.55,7.15,3.0500000000000003,3.25,5.2,5,
2.7658633371878665,7.592759709091286,2.449489742783178,3.271085446759225,2.792848008753788,1.7888543819998317,1.9621416870348585,2.247220505424423,7.65,57.650000000000006,6.0,10.700000000000001,7.800000000000001,3.2,3.85,5.050000000000001,5,
2.32379000772445,7.014271166700073,3.255764119219941,4.444097208657794,3.271085446759225,2.32379000772445,2.5,2.539685019840059,5.4,49.2,10.600000000000001,19.75,10.700000000000001,5.4,6.25,6.45,5,
2.539685019840059,7.648529270389178,2.792848008753788,3.5496478698597698,2.792848008753788,2.073644135332772,2.5,1.3601470508735443,6.45,58.5,7.800000000000001,12.600000000000001,7.800000000000001,4.3,6.25,1.85,5,
1.9493588689617927,8.1117199162693,2.7202941017470885,3.774917217635375,3.0983866769659336,2.202271554554524,2.0371548787463363,1.8841443681416772,3.8000000000000003,65.8,7.4,14.25,9.600000000000001,4.8500000000000005,4.15,3.5500000000000003,5,
2.1330729007701543,9.404786015641186,3.7282703764614498,4.242640687119285,3.3090784215548594,1.8439088914585775,2.073644135332772,2.2693611435820435,4.55,88.45,13.9,18.0,10.950000000000001,3.4000000000000004,4.3,5.15,5,
2.479919353527449,7.6452599694189605,3.0083217912982647,4.663689526544408,3.1144823004794873,2.5495097567963922,2.6739483914241875,2.1213203435596424,6.15,58.45,9.05,21.75,9.700000000000001,6.5,7.15,4.5,5,
1.51657508881031,8.203657720797473,2.4392621835300936,4.330127018922194,2.5298221281347035,1.91049731745428,1.8027756377319946,2.355843797877949,2.3000000000000003,67.3,5.95,18.75,6.4,3.6500000000000004,3.25,5.550000000000001,5,
2.4392621835300936,6.859300255857007,2.8460498941515415,3.8275318418009276,2.258317958127243,1.6431676725154984,1.91049731745428,1.8973665961010275,5.95,47.050000000000004,8.1,14.65,5.1000000000000005,2.7,3.6500000000000004,3.6,5,
2.1095023109728985,5.9076221950967716,2.9748949561287032,3.598610843089316,2.7386127875258306,2.0371548787463363,2.1563858652847827,2.1908902300206643,4.45,34.9,8.85,12.950000000000001,7.5,4.15,4.65,4.800000000000001,5,
2.3130067012440754,7.095773389842717,2.932575659723036,3.3466401061363023,2.80178514522438,2.1095023109728985,1.6278820596099706,2.073644135332772,5.3500000000000005,50.35,8.6,11.200000000000001,7.8500000000000005,4.45,2.6500000000000004,4.3,5,
1.857417562100671,7.042726744663604,2.80178514522438,2.6457513110645907,3.1622776601683795,2.085665361461421,2.0371548787463363,2.3979157616563596,3.45,49.6,7.8500000000000005,7.0,10.0,4.3500000000000005,4.15,5.75,5,
2.1563858652847827,7.1693793315739685,3.591656999213594,3.924283374069717,2.5199206336708304,2.0976176963403033,1.9621416870348585,2.1095023109728985,4.65,51.400000000000006,12.9,15.4,6.3500000000000005,4.4,3.85,4.45,5,
1.8973665961010275,5.621387729022079,3.0903074280724887,3.714835124201342,2.479919353527449,1.8708286933869707,1.760681686165901,1.9493588689617927,3.6,31.6,9.55,13.8,6.15,3.5,3.1,3.8000000000000003,5,
