-20,10,7,2,0,-3,2,-3
5,-6,-13,-5,-1,-13,-1,1
1,-3,-1,-4,0,3,-2,-3
-4,0,4,2,-5,13,5,-1
0,0,7,5,12,-6,2,-1
3,-8,-12,-3,-7,-17,-6,2
-6,-9,-10,-36,-38,-3,-2,-2
-3,5,7,8,11,15,1,0
1,7,15,42,64,9,6,2
6,-6,-12,5,-11,-18,-2,0
-1,-3,-1,-11,-8,7,2,2
0,1,10,-3,12,7,3,2
-7,2,0,-13,-45,-10,-5,-6
8,-4,-9,-32,3,-13,-6,2
2,1,5,34,20,12,-1,1
-1,4,10,-8,-26,8,4,1
-5,2,6,7,28,0,-2,-2
6,-10,-27,-14,3,-14,-5,1
-2,-3,2,-15,-42,7,-1,-2
0,5,9,7,40,12,2,-3
1,8,11,19,-6,7,2,1
4,-8,-11,2,5,-17,-5,2
-3,-4,-1,-10,-10,5,-1,0
-2,2,2,-4,4,3,-2,-1
-4,3,3,-17,-28,-10,-4,-3
3,-13,-20,-9,4,-19,-6,0
-2,2,4,21,26,11,3,-1
1,9,15,4,-11,10,3,1
-3,4,3,-7,6,-1,2,-1
2,-2,-11,-8,-18,-22,-5,2
-3,0,-3,-14,1,4,-4,-6
0,4,13,-3,-26,13,4,0
1,9,15,63,62,8,6,2
4,-4,-18,-14,12,-20,-7,2
-5,-4,-3,-29,-41,4,-2,-3
-1,2,7,9,0,12,3,-3
0,5,8,17,19,2,1,1
5,-5,-16,-2,9,-15,-3,3
-3,-4,-3,-11,-6,4,0,-3
-2,0,5,-16,-15,5,-1,-3
-3,3,7,9,-15,-5,0,1
5,-7,-12,-9,24,-13,-4,2
1,1,1,-11,-14,5,-2,-1
-1,8,11,24,30,12,1,2
-2,5,5,-8,-26,-6,1,0
3,-5,-12,7,37,-11,-5,-2
-1,-3,5,16,-14,4,-2,-2
-1,3,8,-10,3,9,5,1
-2,7,0,2,-16,-10,0,-1
2,-8,-12,-4,2,-12,-8,-1
1,-6,1,-8,-7,4,-3,-4
-3,0,7,-10,-6,9,2,-2
-1,4,0,-2,-7,-12,0,0
1,-12,-13,2,-14,-8,-2,1
1,2,11,20,43,9,1,-1
-1,3,1,-7,-13,17,3,-4
-5,1,4,9,13,-10,0,0
-2,-6,-6,-9,-3,-7,-4,-1
-1,-2,0,-4,-4,4,-1,-1
-6,7,16,-16,-19,15,-1,-5
0,-2,-5,6,-5,-9,-2,-1
4,-6,-7,-27,5,-3,0,1
1,0,10,35,0,2,3,1
0,4,13,-2,9,22,5,-3
0,2,-1,-1,5,-13,0,0
2,-6,-11,-4,-16,-8,-3,1
0,-3,2,31,0,2,0,1
-2,2,9,-16,23,19,5,-4
-1,1,0,-10,-42,-16,-1,0
1,-7,-12,-5,15,-1,-3,2
0,-4,-1,-14,-16,2,3,-1
-3,3,12,17,16,21,4,-3
0,4,4,4,2,-9,1,0
1,-7,-10,-3,-6,-10,-2,3
-1,-6,-4,-13,-9,3,-3,-3
-3,6,8,-4,-8,17,4,-4
0,5,4,12,10,-5,-1,0
2,-7,-11,2,3,-11,-2,1
2,1,8,-4,-2,4,1,-1
-4,5,11,1,-3,18,3,-1
-3,-1,-1,-13,-14,-16,-2,-2
3,-8,-8,-25,-19,-7,-5,1
-1,4,7,32,29,9,1,1
0,7,22,17,27,23,5,-2
1,0,-4,-12,-24,-17,-3,-3
1,-7,-9,7,8,-3,-4,-2
-2,-2,1,-15,-8,6,0,2
-3,2,7,-7,-19,14,3,-3
-2,-1,-6,-5,-4,-14,-2,-1
2,-9,-12,-16,-12,-11,-6,-3
2,1,7,-14,-25,8,1,-5
-3,2,9,59,84,29,8,0
1,0,-24,-29,-24,-16,-1,0
-1,-7,-8,-3,-14,-8,-4,-3
-4,-1,3,1,-10,2,-2,1
-5,5,11,18,4,17,3,-2
0,1,1,0,21,-14,-2,3
2,-7,-11,-28,-47,-10,-3,1
-1,-1,0,3,16,4,-3,-1
-2,3,12,12,21,20,3,0
-3,-3,-3,-5,-22,-19,0,0
2,-5,-5,-13,-8,-5,-6,0
1,-2,4,12,8,8,0,-3
-4,7,16,4,-5,12,2,-2
-1,-1,-4,-34,-25,-16,-4,-1
2,-1,0,55,33,4,-1,2
1,0,3,2,18,7,0,-4
-4,6,11,-16,-12,17,3,0
-2,-1,-6,-10,-14,-15,0,-2
2,-2,-11,9,3,-5,-6,-6
0,0,-1,-2,6,3,-4,-3
-2,3,8,-21,-24,13,1,-5
-1,2,1,21,7,-11,1,-1
4,-14,-13,3,22,-2,0,1
-2,-6,-15,-15,-27,-3,-3,-1
-4,7,15,4,-5,18,0,-3
-5,0,-2,-5,-8,-18,-1,1
0,-4,-4,-10,3,-2,-3,-3
-4,-4,-8,-12,-24,-2,0,-4
-3,9,16,-6,9,23,3,-1
-1,0,3,58,35,-13,-3,-2
0,-5,-9,-29,-33,-8,-2,3
-3,-4,0,6,24,4,-2,-2
0,7,16,4,-21,15,3,-2
-2,-11,-27,-25,-4,-16,-5,0
-1,-4,-6,8,-15,-6,-9,-1
-4,-3,1,-6,9,4,-1,0
-6,4,14,-12,-23,15,1,0
-3,4,-1,19,51,-7,3,2
-1,-9,-8,-10,-31,-4,-3,0
2,1,4,8,30,4,-2,-2
-3,6,15,0,-19,17,5,3
-5,-2,-11,-21,-9,-17,-3,-1
1,-6,-9,0,-12,-8,-5,-5
0,-7,-9,-9,6,7,1,1
-4,10,18,35,22,26,5,-1
1,4,1,-7,2,-17,-3,-4
-1,-5,-10,2,1,3,-3,-3
0,1,7,-8,-8,2,-4,-3
-5,-3,-7,0,-3,14,1,-2
0,0,-2,-16,-7,-14,-1,1
0,-6,-2,4,1,-2,-3,-1
0,-5,0,-11,-8,2,-4,-1
-4,13,16,10,3,15,7,-1
-4,-1,-9,-13,-11,-16,-4,0
2,-1,0,29,30,2,-1,-3
-1,-7,-10,-9,-16,3,1,-3
-6,6,-10,11,4,13,3,-2
1,-2,-4,-24,-17,-19,-4,2
-1,-2,-6,-4,-6,-8,-8,-3
-2,0,1,-15,-33,3,1,-5
-2,9,16,40,68,25,6,0
1,-1,-4,-11,-25,-16,-1,0
-2,-8,-11,-1,-7,0,-4,-5
-2,3,5,20,5,0,1,-3
-8,-3,4,-13,-12,16,4,-5
-2,3,-6,-11,-12,-19,-4,0
-1,-4,2,-2,-3,3,-1,3
3,10,-4,-7,-2,7,-3,-6
-6,-8,20,5,5,16,2,-6
3,0,2,-3,0,-21,-4,-2
0,-10,-8,-6,-7,-5,-5,-3
-4,-13,-30,-14,-17,4,-4,-3
2,17,46,6,7,13,4,-2
7,5,1,28,27,-9,0,5
0,-18,-17,18,21,3,1,-1
5,1,-5,-14,-17,2,0,-5
-23,-11,6,-4,-12,13,-3,-1
0,-13,-36,-21,-6,-17,-4,-4
-12,9,48,-19,-27,-5,-4,5
3,-9,-4,34,28,7,-3,-7
-3,10,13,7,8,15,5,-4
1,-10,-23,-8,-14,-23,-3,12
-1,7,-8,-3,-6,-3,-8,-19
5,0,2,-1,1,3,-2,0
-15,7,15,2,1,18,2,-6
5,-1,-10,-6,-3,-20,-5,4
4,-3,2,-8,-3,3,1,4
25,5,-3,0,-1,7,-9,1
-49,8,20,-12,-9,15,25,-5
14,2,-1,16,-4,-15,3,5
-22,-13,-8,4,25,-7,-37,-27
3,0,-2,-11,-19,4,6,4
5,9,11,-22,2,10,7,4
23,7,4,12,-7,-13,5,16
-15,-11,-19,43,40,4,-1,-4
-3,0,9,-23,-27,-1,-5,-8
5,-6,-13,-25,-15,8,3,1
4,9,13,5,-20,-19,-1,1
-17,-28,-42,4,9,-6,-11,-12
0,19,46,-5,-6,3,-5,2
7,20,20,5,4,20,8,1
10,-7,-20,-15,-9,-21,-1,0
-24,-14,-20,-2,-9,-1,-7,-7
-5,-4,-7,-17,4,5,3,-7
39,16,23,58,40,19,8,7
-27,-8,-10,-9,6,-26,-3,-6
-9,-5,-9,-16,-17,-3,-6,-9
29,8,3,-6,-12,9,4,17
23,13,24,-19,-4,6,6,2
-41,-11,0,28,10,-21,0,-11
10,1,3,-11,-9,11,2,4
-12,-14,-6,17,15,-5,-13,-7
-11,13,21,1,-5,14,-1,-24
0,-4,-14,-11,-10,-26,0,8
44,7,-8,-7,7,7,9,9
64,0,-7,-7,-9,7,3,29
-74,6,20,19,8,17,-5,-16
22,-4,-18,-9,10,-20,-7,5
-10,13,13,-15,-41,-6,-1,6
17,6,4,24,45,11,3,-9
18,14,23,14,8,16,11,10
-17,-8,-21,-12,-16,-24,10,5
-9,-7,-5,-20,-19,-4,-42,-31
-32,-2,12,4,-7,3,-2,-4
10,8,23,9,8,8,7,-1
-13,-42,-63,-25,-12,-21,-10,-6
13,0,-1,-2,-12,-6,-7,2
-15,0,7,-5,-20,9,12,7
43,35,41,58,76,20,23,11
-78,-11,-15,-5,-10,-22,-3,3
-5,-21,-21,-17,-15,2,20,9
50,8,-7,-18,-7,5,-27,11
-4,5,8,-7,-11,12,20,-2
15,4,-6,-4,-5,-24,32,15
-3,-4,-2,1,22,7,-16,-42
23,0,-13,16,9,3,-33,14
-5,-8,6,-19,-25,3,-11,-6
36,7,8,5,12,-14,26,13
-85,-33,-38,2,-3,-2,-3,-19
15,18,30,0,-15,-6,4,5
27,25,13,-14,-8,6,22,2
-2,-1,-7,43,20,-7,-17,2
-35,2,10,-23,-9,6,-19,-1
5,-31,-33,26,10,10,66,6
28,26,34,-7,-10,-21,-128,-32
-17,-12,-21,-9,-10,-14,5,-13
57,-6,5,-13,3,7,24,20
-76,-9,5,0,-25,0,-10,10
-18,3,9,-4,7,10,-6,-38
72,-18,-30,-17,13,-2,53,33
-20,6,-9,20,-12,-13,-56,-13
-128,-2,11,2,-3,-4,-16,-8
26,10,10,-15,-4,4,12,-19
-26,0,-12,-4,-17,-22,-18,3
42,12,8,-16,3,10,13,17
-7,14,6,-6,-13,-2,20,2
6,0,1,27,16,6,10,6
-17,3,-5,-11,1,-13,-10,-10
8,-1,3,-3,-1,9,5,3
-48,-6,1,-8,1,1,-8,0
-16,10,19,-5,-1,-5,3,-10
49,-8,-13,4,2,5,76,61
35,-4,-12,-15,-11,-4,-35,-23
-60,-8,4,-5,-12,-18,-69,-50
8,9,-2,-10,1,-14,57,12
-55,-16,-9,4,-2,-11,-32,-20
-57,12,25,-14,-22,1,3,-15
70,-1,-38,5,17,1,-37,12
19,46,34,40,22,2,7,4
1,-3,-15,-2,14,4,-12,1
46,28,19,-73,-23,-6,11,12
-79,-43,-24,82,26,8,-41,-23
-9,14,24,-1,-4,2,29,26
32,-17,-30,-17,0,3,20,2
60,-14,-14,-6,-14,-24,-52,10
49,18,11,-23,-2,-7,-37,-15
-28,-3,-1,37,7,7,36,2
34,5,3,2,1,12,92,21
60,3,-14,-15,-12,-15,-128,-68
-92,-8,6,13,25,7,62,37
-53,-5,27,26,-12,-22,-45,-33
-17,-4,-26,-29,-6,3,15,1
24,-11,-18,-29,-8,6,35,24
-65,-7,-7,-8,-5,-21,-128,-96
-21,6,12,35,1,-21,-120,-60
19,23,8,15,7,13,45,18
111,22,13,-4,12,22,97,36
-128,-18,15,-25,-24,-6,68,-9
25,-25,3,15,5,7,84,29
92,26,-24,-8,20,19,98,19
-116,-18,15,-19,-10,-13,-90,-43
73,24,20,0,-8,4,68,29
21,-17,-7,-27,-44,-19,2,5
56,6,-6,4,12,-15,-85,21
-64,-16,-9,41,36,4,7,-17
-11,0,1,-21,-17,-7,5,-8
-14,4,8,-13,-24,-14,40,27
47,-14,-11,5,-5,9,22,-9
28,-4,-11,1,-9,-8,56,4
-30,-10,15,-22,-14,-14,37,26
-56,-7,8,17,-15,-19,-53,-86
-2,9,-11,-31,6,16,32,2
11,-19,-20,-3,-14,-3,73,20
11,-2,30,-2,-17,-18,-52,-12
107,25,6,26,3,-3,96,65
-72,-37,-33,-48,-7,-8,-58,-71
46,-13,-16,8,8,1,3,-1
2,16,6,13,7,1,80,21
54,17,8,-29,-7,-9,-128,-6
-36,-8,1,25,26,22,17,21
52,13,-9,-16,-15,-5,8,-5
-24,-10,12,1,6,13,54,25
-115,-3,22,27,25,4,69,32
62,-6,-23,7,9,8,-42,-45
29,-12,-21,-5,-10,-7,2,-3
44,11,9,-21,-24,-3,9,15
-94,-2,3,12,5,-5,-1,17
24,3,2,-36,-8,16,26,8
-14,-5,-30,54,39,-9,-128,-74
39,9,15,-4,2,-3,27,4
54,14,-2,-13,-15,-6,22,22
13,6,-1,-41,-14,17,-6,23
-45,-19,-9,24,-7,-9,37,16
9,17,37,-3,-3,-4,18,-7
-38,-1,-34,-15,-6,-10,-76,-22
19,8,9,23,18,13,-5,38
18,-3,-17,-32,-19,-13,-23,-29
-25,-7,-9,-5,0,0,-28,16
22,12,2,15,3,-10,-9,-16
56,13,-28,2,4,12,-5,15
40,2,0,-29,-11,-12,18,8
-62,-33,13,6,-19,-2,58,14
127,56,32,36,31,-8,-56,9
1,-52,-45,-15,4,20,-1,5
30,8,3,-21,-13,-9,28,19
50,36,60,18,11,4,-3,4
29,-29,-35,-26,-23,-11,2,13
-12,-9,-16,-11,-3,3,-10,-7
13,7,6,-6,2,-3,-13,-5
-21,-13,-1,-4,-8,0,-16,12
-90,-9,23,4,0,0,-18,-24
-8,2,-4,-4,-10,19,122,54
65,7,-12,24,47,16,42,55
36,3,-7,-21,3,-3,3,1
20,37,49,15,-28,-21,-58,-12
-61,-28,-26,-31,-22,5,-11,-29
0,-5,-16,8,13,-9,-90,-49
-80,13,53,51,27,12,-12,-14
33,17,4,-14,2,-6,21,19
-7,-19,-34,-58,-44,7,0,1
107,12,21,-19,14,-3,-10,14
-89,-18,9,66,-5,-5,16,-6
11,-3,13,18,21,-7,-33,-6
2,4,-8,-7,-3,11,-35,0
-23,-9,8,-9,-14,-14,-103,-30
-40,-6,-24,17,2,5,57,11
2,13,13,-8,-14,1,58,28
-18,-38,-41,-34,2,2,-39,-39
7,0,0,4,-9,-7,-15,3
64,8,1,5,17,-7,1,4
-105,-10,8,5,-5,-1,44,-10
11,-15,-44,-41,-9,18,35,11
-5,-12,-9,11,4,8,-3,4
37,25,43,10,3,4,25,9
-9,-34,-48,0,5,-8,-12,-14
3,-6,-10,-1,1,13,15,9
33,2,5,8,6,-6,-8,3
-9,6,6,-6,-21,-8,-18,-7
-9,7,10,8,4,-6,0,1
3,-10,-18,-17,1,18,-5,1
6,-5,-3,-5,4,-6,5,0
0,-1,7,-6,-21,-7,1,0
0,8,9,6,9,8,6,0
6,-7,-18,12,36,12,-1,2
-5,0,5,-3,-3,-2,-3,-4
23,2,6,-20,-24,-8,3,-1
-57,-5,1,2,-11,-6,-33,-13
2,-3,-12,18,31,11,-14,-9
7,-4,-4,-8,-8,10,10,1
0,6,9,-5,3,-8,5,1
7,5,9,17,10,2,9,-7
-31,-16,-17,-9,-2,1,-11,-1
8,1,-4,-15,-13,-17,-8,-1
1,3,11,-3,-24,-29,-2,-2
1,2,3,4,16,31,6,-3
0,-6,-10,-12,-11,6,-4,-9
2,-5,2,3,-9,-14,3,1
3,7,16,37,53,-6,-1,0
-4,4,0,23,12,-4,0,1
-1,-9,-18,-29,-31,5,-10,2
-2,-7,-8,-23,-4,-3,-1,-2
-6,12,15,9,-10,-11,2,-3
-1,8,11,1,-6,-6,-1,-2
0,-14,-21,-9,-5,5,-5,0
-4,-4,-4,-20,-2,-6,0,-2
-3,5,16,11,-9,-2,7,0
-2,12,26,32,34,-4,2,1
-3,-23,-68,-13,-10,6,-5,3
-3,1,6,-9,-7,-1,0,-10
-1,11,29,-2,-10,-15,1,-2
-4,-6,-30,11,4,8,4,25
-5,-10,-13,-17,16,1,-8,-34
1,1,-8,-2,-9,-6,-3,0
-8,11,34,-10,-6,-2,1,-4
-1,9,19,19,-12,-6,-7,-13
-1,-16,-27,-26,14,16,3,8
-2,-15,-8,30,-6,-2,0,-4
-6,-1,17,-17,-13,-1,-2,-7
-2,9,7,3,-20,-3,-1,4
2,-5,-15,6,28,3,-7,1
0,-2,7,-6,-6,5,1,0
-3,-4,12,-4,-21,-1,0,-8
-6,-11,-42,8,-12,-9,-1,9
2,-13,-17,-13,21,1,1,6
7,8,12,22,33,9,3,1
-1,23,68,10,-19,-4,3,-6
-4,-12,-43,-11,-13,-8,-3,12
-7,-26,-35,-31,-24,-7,-11,-6
0,-1,15,-4,-16,4,2,-1
-1,-2,11,51,50,9,2,3
0,9,47,-8,-17,-4,1,-1
3,5,-4,-16,-7,-5,-6,-1
2,-4,1,0,-14,3,-1,1
0,8,18,25,48,9,5,-2
1,2,-16,-7,-8,-2,-6,-3
2,4,28,-20,-17,-9,-3,5
0,-32,-99,-4,7,9,-1,10
4,30,75,-12,-12,14,4,1
2,-16,16,29,4,-4,3,3
-4,1,0,-17,16,-9,-5,0
3,3,20,-4,-12,0,1,3
-5,-3,-35,-7,-5,10,3,-5
0,13,-1,-5,-16,-6,-2,2
-1,-14,-24,11,23,-4,-2,3
4,20,73,5,-5,7,1,2
1,4,-6,3,-4,10,-3,-5
-6,-8,-8,-23,-11,-11,-1,9
3,-4,-11,-13,-10,-4,-1,-2
0,-19,-19,7,-2,-2,1,1
1,13,34,32,56,19,4,0
-4,5,39,4,-11,-9,-2,-1
2,-10,-24,-16,-27,-9,-6,0
1,-4,-2,-6,8,3,0,0
1,7,16,15,19,16,9,0
-4,0,-14,2,-12,-7,-1,0
-2,-13,-21,-21,-23,-15,-6,0
-2,11,44,0,4,3,-4,-3
4,8,16,11,6,10,5,-2
-3,2,-3,-19,-9,-9,-3,-1
2,-4,-7,-27,-37,-12,-8,0
-1,-3,-4,27,26,15,2,-1
0,13,37,35,39,18,2,-1
-5,-5,-15,-4,-22,-14,-3,-2
2,-10,-16,-11,18,2,-4,3
2,-2,0,12,-4,3,3,-4
-1,1,7,-7,-19,11,2,-4
-1,1,5,-10,-2,-9,2,-2
-6,-25,-50,-13,-10,-8,-6,-1
0,-4,20,-12,-10,-1,-2,-2
-6,10,19,3,-16,14,5,0
0,3,6,-4,37,-2,0,0
4,-7,-15,24,26,1,-3,3
0,0,4,-5,-22,3,-6,-2
-5,2,13,7,6,10,0,-1
-4,7,5,-29,-17,-15,-5,-1
2,-11,-36,-1,-16,-6,-5,1
-4,1,9,-16,-34,-2,-2,0
-3,9,28,53,88,24,7,-1
0,4,5,-3,-12,-10,1,3
0,-6,-2,-14,-20,-9,-4,-1
-1,1,-5,-8,-8,4,-3,-5
-6,3,28,-8,-16,9,0,-7
-2,5,2,16,9,-11,-2,-1
1,-3,-3,-3,-16,-4,-3,3
-1,-1,1,-2,34,11,-4,-1
1,11,24,13,-9,15,2,-1
1,6,0,0,-10,-16,-3,1
-5,-23,-54,-25,-8,-6,-4,-3
1,4,17,5,4,8,3,0
0,13,15,14,25,20,5,0
2,22,34,15,16,-14,0,0
-2,-46,-64,-6,-18,-11,-5,1
-3,3,5,-23,-5,2,-5,-2
-5,5,4,-8,-29,12,0,-2
0,11,17,25,45,-12,-3,-1
0,-10,-19,-26,-41,-1,-2,0
1,-2,-4,20,47,8,3,1
-4,11,41,-1,-12,16,5,-4
-2,1,-8,-19,-15,-20,-3,-1
1,-6,-9,-7,-11,-5,-3,2
0,-1,1,0,4,4,0,0
-4,5,8,-18,-9,18,4,-2
0,3,-4,46,40,-15,0,2
1,-4,-11,-21,-11,-6,-2,0
-2,-2,13,7,-11,2,-3,1
-4,1,7,-15,-24,8,0,-2
-3,2,-2,-6,15,-10,-5,-1
3,-1,2,-3,-14,2,-1,-2
-3,-22,-33,-8,6,0,-3,-2
-1,16,51,19,-7,16,0,-3
3,3,6,9,36,-5,3,2
1,-10,-37,-8,-12,-4,-5,0
0,-1,-4,-21,-18,1,-4,-3
-2,5,23,39,6,18,5,0
-1,-5,-10,8,25,-13,-3,0
-2,-8,-12,-22,-22,-7,-7,-2
-4,-10,-13,-26,-20,0,-4,-3
0,7,17,12,-14,15,3,-3
1,2,1,10,22,-6,-1,3
3,5,6,20,18,-3,-4,1
0,-8,-6,-13,-11,-1,2,-3
1,5,3,-5,-30,12,3,-5
1,4,0,2,23,-7,-1,-2
3,-4,1,12,3,2,1,6
-3,-13,-23,-6,4,-3,-3,-1
-2,6,11,-9,-51,8,2,-3
0,1,-2,-6,2,-13,0,1
3,-2,-2,35,50,1,-2,-3
1,-1,8,-20,-13,3,1,-4
-4,6,10,-9,-24,11,4,-2
-4,-4,-1,-16,-14,-16,-6,-2
1,-5,-6,7,-3,1,-4,1
-2,9,13,4,12,1,0,-3
-4,10,33,-17,-7,12,1,-6
-1,-18,-69,22,3,-20,-2,-1
0,0,-1,-14,-5,-4,-1,1
1,0,3,7,0,6,0,0
-5,18,42,-1,-1,13,6,1
-8,-35,-91,-10,-7,-21,-6,-4
1,-4,2,-12,-3,0,-5,1
0,3,7,-26,-45,1,0,-2
-1,6,16,56,84,20,7,-2
3,5,2,0,-2,-12,-4,1
0,-7,-8,-15,-35,-5,-4,-3
-1,2,14,-14,30,12,1,-1
2,10,17,41,0,14,0,0
1,-9,-6,-18,-16,-22,-7,-2
1,-6,-8,-20,-17,-4,-2,-3
0,-2,6,-1,-1,4,3,-3
-3,8,14,-5,-10,10,1,-2
0,0,-5,5,1,-18,-4,2
-1,-3,0,-9,5,-1,-6,-1
1,11,23,-24,-32,0,0,-3
-7,1,5,55,25,18,0,-3
0,7,7,15,49,-8,-4,3
3,-6,-6,-23,-34,-10,-5,1
-7,-3,-2,-18,-34,3,-3,-6
-3,11,24,28,49,15,1,2
-6,-21,-28,-26,-42,-25,-5,-2
-2,-4,-13,1,25,6,-4,0
-1,3,12,-5,-19,-2,1,-1
-4,0,-28,-5,-2,16,5,-2
-1,-8,-4,8,6,-20,-4,-1
3,-5,-9,-18,-21,-4,1,1
-1,-1,8,0,12,6,1,0
-3,5,7,29,14,12,6,-1
1,-2,-9,-9,-1,-19,-3,0
-5,-8,-12,-23,-19,-6,-5,-3
0,-2,2,-1,-5,1,3,0
1,15,46,11,11,18,7,-4
-6,-17,-45,5,2,-19,-6,-4
3,-3,6,8,18,0,-1,1
1,-5,-5,3,1,8,2,-1
-7,-1,-4,-22,-48,4,0,-4
0,2,-5,18,37,-15,-5,0
-2,-4,-6,11,15,-4,-4,-3
-3,-4,-3,-43,-36,3,0,-1
-3,6,16,41,5,17,2,-1
2,-5,-10,-2,9,-19,-5,1
0,-5,-4,-7,-6,4,-2,-3
-1,-3,7,4,4,4,0,1
-5,-1,-5,-3,-8,5,1,-2
1,14,24,-3,3,-16,-3,2
0,-18,-69,-7,-3,2,-1,-1
-2,-4,4,-10,-22,2,-3,-1
-4,7,10,14,19,17,3,-1
0,0,-4,-15,-22,-19,-7,0
2,-4,0,19,30,3,1,3
-2,-4,-10,-15,-24,3,-2,-2
-5,9,23,7,7,10,6,-4
1,-4,-11,24,-15,-21,-3,0
1,2,3,13,56,5,-4,0
-1,2,0,-22,-39,2,0,0
-4,5,15,-3,-2,11,-1,-5
-1,-5,-13,-8,-3,-23,-3,1
2,-2,-1,-12,-3,2,-3,2
-5,-1,2,26,2,2,1,-2
-2,7,7,-9,-2,8,4,-3
2,-6,-12,-1,5,-21,-8,1
-3,-6,-2,-1,11,4,-1,-2
-1,3,18,-9,-18,1,3,-1
-5,-12,-31,17,4,15,7,-2
0,-3,-3,-16,-1,-25,-4,-1
2,-3,-2,-5,-31,2,-1,-3
1,2,4,-4,36,3,-2,-6
-3,8,15,8,-13,12,4,0
3,1,-5,2,24,-20,-8,2
0,-1,3,-2,-17,-1,-4,-4
-3,-13,-31,-16,-32,-2,0,-5
-4,8,15,1,32,16,0,-4
0,-6,-16,9,13,-21,-2,1
1,-5,-3,-1,-6,2,-1,1
4,9,14,5,7,5,2,-4
-5,-5,-15,-4,-16,4,-1,-3
3,-8,-19,-28,-14,-28,-3,3
-1,-1,0,8,-32,-2,-3,0
1,4,10,24,83,12,6,5
1,9,21,26,-27,6,2,0
-1,-10,-23,-22,-17,-28,-6,-1
-1,-2,11,-27,-22,1,-1,-2
-3,-2,-2,8,2,2,-2,-1
1,8,20,4,10,12,4,-1
-1,-4,-13,4,15,-25,-8,-3
-1,-5,-7,-19,-40,-1,-3,-3
-2,-1,5,3,50,8,3,-1
1,6,16,11,-5,7,3,-2
-2,-14,-39,-15,-29,-34,-8,-1
-2,0,20,-20,-15,2,1,-1
-2,-11,-59,28,51,3,0,-3
0,15,28,-11,-19,6,-2,3
2,-3,-11,-20,-14,-26,-7,2
-1,4,10,0,-11,5,-1,0
-2,-5,-21,12,14,1,1,-4
-7,5,6,0,-16,4,0,-2
5,-11,-22,1,28,-16,-4,1
4,-3,-1,4,-5,1,-4,1
-1,2,8,-3,2,2,1,0
-7,7,5,-7,-14,3,-1,-2
3,5,-5,-19,-17,-29,-6,0
-3,-8,-15,-21,-20,5,0,-4
-1,-1,6,34,43,6,1,-2
-2,9,13,12,7,13,4,1
5,-11,-14,-15,-21,-27,-5,1
4,0,-4,-24,-25,0,0,0
-20,-41,-9,4,9,-2,-7,-6
4,17,14,18,7,5,0,-4
-16,-9,-13,-17,3,-22,-4,0
3,-9,-5,-33,-38,-4,-2,2
10,11,-3,30,-2,4,0,1
9,24,24,24,50,12,8,6
10,-9,-29,-8,-19,-23,-1,6
-8,-3,32,-14,-7,-2,-9,-6
1,-6,-31,8,13,6,-1,-4
3,5,19,-17,-13,6,2,0
2,-3,-19,-1,-18,-26,-7,5
1,-7,-3,1,14,0,-3,0
1,-7,-12,-7,-9,1,0,-5
-8,22,45,7,0,1,-1,-6
-2,-23,-64,-16,-3,-23,-5,2
-1,-2,4,7,-18,0,-2,-1
-7,4,11,-8,31,9,-8,-7
-1,2,4,29,2,8,14,-1
7,9,3,2,-10,-23,-13,1
-4,-10,-14,-30,-6,1,-12,-7
-1,-5,1,34,21,7,-7,-10
-8,11,7,-13,-7,14,24,6
6,-10,-27,-17,-20,-27,-13,2
3,-1,17,-22,-36,4,-6,3
6,-5,-20,41,82,8,-1,1
-3,14,36,-7,-26,-9,-14,-1
-6,-5,-17,-17,-12,-19,7,-28
-4,-6,-12,-7,-2,5,-10,-1
4,-4,-2,-6,-3,4,6,3
-3,8,21,10,-10,2,-3,0
7,-2,-15,-6,14,-20,-5,2
-4,-18,-15,-19,-22,-6,-6,-4
-15,4,13,24,21,12,3,0
-5,6,12,1,9,5,3,-3
3,-5,-15,-10,-11,-22,-3,4
10,-9,-20,-22,-19,-1,2,2
13,19,29,8,10,4,-1,2
-11,3,0,27,17,3,2,-1
-3,-3,-15,-15,-19,-22,-2,1
-3,-5,13,8,24,8,0,-5
8,-3,-18,9,-4,1,1,-2
3,9,21,-10,-12,-9,-3,-9
-16,-14,-27,-29,-25,-17,-10,-6
-34,-29,-34,-3,23,2,-7,-19
18,5,5,29,-6,10,3,-2
10,10,13,-7,9,10,2,1
-2,-15,-14,-10,-5,-21,-23,-4
1,-10,-7,11,13,12,26,0
2,7,8,-9,1,5,-3,4
-6,0,0,-14,-20,-5,-2,2
26,4,-15,10,11,-20,-6,22
-12,-8,-5,-15,-12,3,1,0
7,13,31,4,2,5,1,-2
3,5,-6,25,10,8,8,4
-3,-6,-20,-8,13,-21,-6,0
-15,-16,5,-1,-8,2,-1,-4
13,7,-2,-11,-9,1,-5,-4
-10,13,34,-3,-9,-9,-3,-11
10,-9,-37,-35,-28,-17,-6,3
5,1,9,40,29,14,6,3
1,-1,2,10,17,4,0,-2
-2,13,-4,8,-2,-4,10,4
12,-7,-17,-10,-17,-22,-9,2
4,1,2,-16,-9,0,4,-2
4,-2,10,-1,-6,6,-25,-19
-2,4,5,26,26,8,3,-2
12,-12,-24,-13,-1,-15,4,8
-9,3,15,-5,-16,1,2,7
-11,-12,-16,-19,-12,14,-1,-7
-3,9,25,30,41,5,13,-9
11,15,9,13,-1,-15,-23,-17
7,-13,-12,-22,-20,-3,7,9
2,0,6,-15,-14,10,6,5
-15,-21,-27,-3,11,10,14,2
4,2,2,3,-16,-19,-21,-7
15,2,2,14,20,5,8,-5
4,5,4,-16,-10,1,-6,-4
-37,-5,2,2,-7,-8,-20,-7
-11,-16,-26,-2,1,-20,-6,-6
3,16,9,-21,-14,-1,-20,-7
12,3,19,28,6,12,15,7
40,9,-7,22,20,-1,3,14
-31,-4,-10,-28,-22,-4,42,7
28,-6,7,17,20,3,-69,-20
6,3,6,22,0,4,15,0
-14,-5,0,-15,-21,-9,0,15
24,-10,-16,-9,-14,-13,30,5
-9,-2,6,2,35,19,-13,-21
6,8,3,-33,-21,6,-6,6
3,1,8,41,-6,-2,-24,2
19,-1,12,26,35,-4,-46,-15
12,-7,-20,-16,-21,3,11,3
16,5,-6,1,-2,3,-2,-2
-71,-5,11,-12,-14,-3,15,-1
33,-9,-12,-2,3,2,24,20
-34,-7,17,-22,-18,-5,-6,-13
-36,-8,8,10,7,0,22,-13
-25,-7,-2,16,6,-6,-3,-22
-11,-1,-12,-16,-7,-6,-1,-7
32,2,19,-21,-13,1,38,16
10,-10,-14,6,-2,-3,-30,3
-14,9,18,18,3,2,0,-15
-25,-24,-39,-20,-1,-8,10,8
-28,-18,10,3,-1,2,-8,-14
7,-16,-5,-22,-20,-2,11,29
4,1,12,43,33,3,1,-28
-12,10,-15,-14,0,2,23,22
4,-7,-4,-13,-7,5,6,-17
26,12,10,-3,5,11,35,33
-13,3,24,-10,-25,-17,-46,-25
3,0,-12,7,24,16,18,18
33,6,10,-11,-11,-13,3,26
-22,-1,-56,39,25,13,21,4
-5,2,11,-10,-21,-9,-8,-1
11,4,14,-45,3,6,36,23
40,31,-9,26,6,1,-54,-15
-49,6,17,-9,-7,0,-10,-50
38,8,-12,33,16,-5,20,13
26,-15,-23,-36,-15,6,44,16
2,5,32,21,10,-15,-68,-18
2,-1,13,6,11,8,58,5
27,7,9,-26,-41,-25,-41,-13
-42,-13,-8,9,-1,-13,-63,-28
26,9,-3,-11,-3,24,127,58
12,-25,-15,-15,-15,-5,-63,-11
31,3,17,4,-4,-7,-47,37
25,-10,-13,-10,3,9,55,6
-19,-3,13,-8,-3,-16,-28,-29
19,2,1,-2,-12,-1,2,17
-14,-23,-9,1,1,-7,-7,-17
55,0,-12,-9,-9,4,6,21
-19,-21,-46,-15,9,-1,-11,-11
12,21,42,23,-3,-1,-108,-20
-39,-1,32,24,10,-2,-62,-10
21,-26,-26,-20,-6,7,32,11
-1,-21,-13,-43,-29,-18,-51,-54
5,-13,-49,19,9,-4,-73,-37
42,3,4,36,3,5,-31,22
-69,-33,5,1,15,0,-6,-21
5,16,14,-5,-7,1,12,-30
-9,-10,-5,-16,-24,-8,32,37
84,10,11,-15,-4,-7,48,36
-104,-11,-32,13,-2,16,3,-60
24,2,-1,-17,17,4,5,25
-17,-7,-1,35,0,-12,-12,-15
1,6,-1,-3,-13,-9,-8,-17
-16,-11,11,-24,-16,2,92,47
24,-8,-43,-17,3,-4,-60,-17
24,-25,-12,6,-8,-9,-14,3
-2,7,17,16,0,-3,7,-43
0,-7,1,-15,3,1,-65,5
68,-4,-60,-15,-1,-3,3,3
-7,2,31,2,-16,-8,12,2
9,-2,10,-6,-10,-4,60,23
44,-2,-33,-18,-7,1,-5,3
15,-7,0,3,7,7,32,14
-124,4,-3,-17,-4,-6,-28,-37
37,19,48,14,0,-5,-31,45
-26,-18,-29,14,12,20,63,8
53,9,20,-27,-5,-1,-23,2
-67,12,35,36,33,4,-37,-42
12,-3,-21,2,16,13,35,36
71,-11,-10,-40,-24,12,127,37
-89,1,-18,0,-4,-8,-23,-16
39,6,14,-10,-11,1,14,8
34,22,40,8,-5,-7,-19,5
23,-12,-29,-9,4,18,41,10
1,-11,-6,-22,-6,-6,-28,-7
10,18,9,55,34,7,-6,13
20,8,7,-7,0,5,49,17
-1,-32,-39,2,5,5,5,-9
32,18,8,-1,0,-7,1,-19
66,30,43,-18,-25,-5,-20,1
-128,-86,-66,5,5,-15,4,8
25,13,16,19,7,4,-59,-27
-8,-2,4,-14,-7,-23,-81,-30
-19,-8,-11,-6,-23,3,-12,-15
24,11,12,0,8,2,116,40
41,5,21,4,16,12,-28,-21
59,1,-7,-3,-7,-5,73,58
-17,-10,9,20,-4,-15,-37,-4
9,20,25,-14,-15,-3,36,-15
-18,-20,-13,12,18,2,4,-5
-37,5,-9,-49,-26,-10,-9,-15
-31,-18,-15,27,21,3,-4,-18
-4,8,-6,49,25,16,51,23
-10,-11,-7,10,22,-14,-11,-52
20,3,11,-17,-13,-3,-1,-3
-72,-2,5,-29,-42,-19,-3,-12
10,4,-28,-8,-12,6,66,14
34,-9,-29,0,8,7,-16,32
3,0,-2,-14,-14,-11,-101,-47
13,23,44,5,-5,-9,20,-12
-6,-22,-20,-9,-9,-1,16,12
52,0,-9,-13,-3,9,10,7
-89,-25,-21,-20,-8,5,2,-19
26,13,23,39,51,0,37,0
7,9,14,19,3,4,-9,-11
10,-11,-22,-12,-15,0,-7,6
9,-2,-2,-2,-12,-7,40,5
-8,-5,14,-2,-13,-15,-20,-28
-6,3,-1,-50,-23,-9,-5,28
12,8,-4,50,28,12,20,-6
-29,-5,4,6,-3,-4,4,0
-10,0,4,5,2,-24,-8,-24
10,3,-5,-17,3,3,-2,8
5,-4,-3,26,19,13,10,5
-4,-3,-5,-23,-23,-35,8,-10
-3,4,13,4,-11,12,-7,12
-2,0,-3,17,26,-4,7,-3
-1,-8,-12,-20,-9,-7,-10,-3
-4,-5,0,-16,-28,-4,-5,-6
-2,4,8,34,21,-10,5,-8
0,-1,-13,-53,-39,-5,-6,-5
0,0,1,41,52,14,1,2
1,2,5,16,5,0,-1,3
-3,-6,2,-11,-19,-12,2,-1
0,-7,-33,-24,-27,-11,-6,1
-3,-19,-79,-22,13,17,1,0
0,4,39,21,13,5,10,7
0,17,22,2,-10,-18,-2,-7
-6,2,-12,20,23,11,-3,-21
-1,-4,-2,-21,-6,-2,-7,1
-6,1,12,-5,-13,-4,-1,-11
-4,11,32,-6,-12,10,1,-5
2,-3,-17,19,30,25,12,-5
4,0,-1,-1,0,2,5,22
-3,-3,2,-15,-28,-9,-4,-4
-1,20,41,12,8,-19,-3,-8
5,1,-7,-7,-14,1,-1,34
-8,-18,-32,19,24,5,0,-23
6,19,43,-1,-13,0,3,5
-4,-2,6,-13,-18,-10,1,1
-2,4,-6,-3,-2,6,-6,0
1,-3,1,15,27,1,-2,-2
-2,-3,-13,-14,-14,-4,-3,1
-3,17,48,-12,-22,-7,5,1
2,-10,-65,29,38,8,-1,-6
1,-7,-16,-8,-1,2,-6,-5
-6,-28,-28,-14,-13,-7,1,1
-7,-6,6,-28,-65,-16,-2,-5
-1,-2,-18,22,85,11,1,-2
5,-4,-1,31,25,3,-5,3
1,0,-21,-24,-34,-4,6,-1
2,-13,-15,7,-4,-10,-7,17
-5,5,-2,-8,-10,2,-6,-29
4,10,33,-4,-5,-5,-2,5
-5,-17,-9,-11,-6,-4,-7,-19
-2,6,-14,-6,-7,4,10,19
-6,-18,-35,9,2,2,-8,2
4,6,29,17,20,2,0,2
2,-2,-1,-3,-12,-3,2,-1
-3,5,31,2,-3,-4,-3,-7
-5,-24,-73,-35,-19,-9,-3,2
6,10,28,40,25,7,1,1
-5,-13,2,-4,10,-5,-1,5
-4,-5,-17,-24,-26,0,3,-7
-12,-11,-15,4,1,-11,-10,-4
-8,-21,-25,-20,2,-2,0,0
1,14,26,18,-11,5,0,-3
-3,-4,-14,-16,12,4,6,1
4,12,24,4,-20,-3,-6,-1
0,12,35,22,10,-2,-3,-1
-1,-9,-13,32,23,2,1,0
-4,3,4,-21,-24,3,3,-4
0,-5,-5,-10,-13,-11,-6,-3
-6,-10,-21,-35,-21,-6,-7,-3
-3,-1,0,10,-10,4,1,-3
0,18,30,20,42,18,6,0
-1,8,19,-6,-18,-18,-5,-1
0,-10,-18,-14,4,-2,-1,0
-4,1,15,-15,-29,-5,-4,-7
-1,12,27,-12,-17,8,3,2
-1,-21,-78,31,56,0,3,3
5,9,31,25,14,2,3,4
-4,-3,-56,-21,-37,-8,-6,-6
-4,5,11,-3,-5,11,5,-4
-1,-14,-70,4,-12,-17,-4,-1
0,10,46,-7,17,4,-5,3
-2,-5,-17,-14,-24,2,-1,0
-6,13,36,29,39,6,1,-5
5,0,-7,-18,-22,-14,-1,4
2,-13,-44,24,40,9,-1,-2
0,2,7,2,-1,5,2,0
-1,28,63,-3,-14,7,1,1
-4,-10,-2,-20,-15,-17,-5,-1
1,-3,-19,1,6,0,3,1
-3,-5,0,-1,-7,3,2,1
-6,0,38,6,11,14,1,-5
-1,7,-23,-20,-14,-19,-3,0
1,-15,-23,2,8,-1,-1,-2
2,13,35,6,6,4,1,-2
-3,-5,-28,-17,-59,-1,-1,-3
-1,0,3,25,50,-6,0,3
3,3,-1,40,52,6,3,2
5,17,61,-7,-11,4,1,-3
-4,12,18,-20,-32,5,3,-6
2,1,2,-16,-15,-23,-7,0
-1,-28,-37,-20,-7,1,-2,-5
1,9,13,11,-4,0,-2,-4
-6,11,28,-3,-11,8,2,-5
6,5,4,18,23,-15,2,3
4,1,5,-3,10,3,1,2
-5,-11,-3,6,-9,1,-3,-3
-6,-3,-17,-7,-2,10,1,1
0,5,-1,-11,-18,-23,-5,0
2,-1,6,-6,-7,1,2,4
-3,-1,-5,-7,9,6,-1,-4
-3,6,16,37,5,10,4,-2
1,-4,-10,16,18,-14,-1,-1
3,-9,-12,-17,-14,-2,-3,-4
-2,10,31,-13,-41,-3,0,-2
-9,-15,-24,15,21,14,3,-6
0,-7,-13,12,24,-16,-5,3
-3,-17,-19,-17,-21,-1,2,-4
-3,2,15,-18,-13,-4,-4,-2
-4,12,23,-10,-32,6,2,-4
0,-18,-36,15,40,-13,1,-1
5,0,6,-1,3,3,0,-1
0,2,3,-16,-23,-1,-4,1
-4,1,6,11,-19,4,-1,-5
-6,-25,-28,-50,16,-20,-4,1
0,4,19,51,4,12,1,1
-3,1,11,12,46,6,0,-1
-1,1,-14,-17,-38,3,2,-1
-1,-12,21,-11,-18,-23,-6,0
-2,-11,-60,-14,-7,-3,-2,-4
-5,4,7,7,14,4,1,-3
-3,8,16,-2,-8,6,1,-2
0,-3,-14,-23,-21,-23,-6,-1
-4,-11,9,14,3,3,0,-3
-1,-2,-9,10,10,4,-1,-1
-4,7,14,-4,4,10,2,-1
2,-6,-10,22,13,-18,-2,1
1,-11,-21,-7,-12,-3,-3,-1
-3,0,7,-13,-50,-3,-2,-3
-6,9,16,20,72,19,3,-3
2,-5,-11,-42,-43,-24,-5,0
-3,-8,-6,42,18,3,-4,-1
-1,7,13,-10,13,4,2,1
-2,22,41,4,-12,8,2,1
0,-32,-74,-11,-6,-24,-9,-4
2,-5,6,-11,5,2,1,0
2,7,11,10,-10,1,1,1
1,17,35,5,-4,6,2,-4
-2,-38,-86,-38,-31,-24,-9,0
1,-1,11,15,35,8,1,1
-1,8,16,14,4,2,-2,1
-2,7,11,-11,-14,5,0,-2
0,-6,-18,-8,-2,-24,-5,-1
1,-4,-1,-14,-30,2,-4,-2
-4,1,6,25,54,4,-1,-1
-2,3,9,-20,-13,9,4,-2
2,-8,-11,-26,-25,-23,-5,-1
2,9,33,37,20,8,2,0
-5,-17,-44,0,3,5,-2,-3
-3,8,15,-10,-3,6,3,0
1,0,-8,-12,-37,-22,-5,2
-3,-31,-49,2,35,-1,-5,-2
-2,5,18,-22,-22,-2,-2,0
0,5,-9,3,-18,2,3,-1
1,0,-10,26,37,-17,-3,3
0,1,13,1,14,7,0,0
-3,1,2,-36,-30,-3,-2,-4
-7,-4,-4,11,-6,3,2,-5
2,12,30,16,25,-18,-4,0
-1,-6,-20,-27,-29,3,-1,-3
-3,-1,-16,13,31,4,4,-1
-4,7,14,-12,-29,2,0,-5
-1,-18,-40,-12,6,-24,-4,0
2,0,5,7,1,5,0,-1
-3,2,15,8,16,4,-3,-2
-4,3,-26,-13,-12,2,-1,-3
-3,-22,-49,-31,-24,-27,-5,2
0,2,13,12,7,6,1,2
0,5,16,55,47,7,2,-1
-3,7,-1,-30,-33,-1,3,-2
1,7,18,-2,-15,-18,-8,-2
-4,-16,-31,-9,-11,-1,-2,-4
-1,8,30,6,29,7,2,2
-4,-6,3,10,5,5,2,-4
-3,-9,-14,-23,-17,-19,-3,0
1,-1,-11,-4,-13,4,-3,1
3,-2,0,5,10,0,2,1
-2,8,4,-7,-18,-2,0,-2
0,-12,-7,-15,-1,-16,-5,1
0,-3,-1,26,31,4,1,1
0,-1,4,-8,-10,-2,1,1
-1,11,24,-12,-40,2,-1,0
-1,-11,-16,15,63,-14,-3,1
0,-3,-5,-24,-34,-4,-5,1
-4,-5,0,-18,-34,-1,-4,0
-1,10,19,47,58,9,2,-1
3,-10,-17,-13,-6,-19,-2,0
0,-5,-15,-22,-23,-3,-4,-1
-3,-1,4,-24,-21,-1,-2,-3
0,2,10,6,-12,6,5,0
2,-3,-12,29,44,-20,-6,3
2,3,13,-6,-8,7,2,0
0,-5,-3,-4,-2,6,-2,-2
-3,17,25,-9,-14,1,1,-4
0,-8,11,-22,-19,-26,-6,-2
-2,-9,-12,7,19,8,-1,-1
1,7,11,-7,-24,5,2,0
-1,18,21,26,41,4,1,-2
-5,-19,-9,3,-3,-24,-6,3
0,-4,2,-6,-6,7,1,0
-1,-3,-9,-17,-4,3,-3,-1
-2,6,8,-4,-16,0,0,-5
-1,-9,-20,7,-17,-22,-8,1
-3,-6,-4,-11,22,12,0,1
3,3,-7,32,16,11,3,4
-5,7,22,-2,13,-1,0,-3
-3,-18,-45,-22,-22,-20,-6,-1
0,-5,-15,-11,-12,-1,-2,-2
0,4,21,-5,-21,5,-3,0
0,4,4,-13,21,0,2,3
3,-5,-12,5,-9,-16,-6,2
6,8,12,56,49,7,-1,-3
0,5,-6,-31,-23,5,1,-5
-3,1,1,-2,-32,-1,-2,-1
-1,-2,-10,-32,19,-16,-4,2
-1,0,4,40,9,9,5,-1
-2,4,-4,-9,3,4,1,0
0,5,8,-13,-19,-6,-3,-2
2,-9,-7,-14,-9,-19,-2,1
-2,0,-5,27,25,6,-4,2
0,3,7,-2,-3,9,2,0
-3,6,21,-7,-7,1,1,-2
-4,-8,-40,-8,-7,-21,-6,0
-3,-1,0,-12,-13,0,-4,0
-4,2,10,-1,0,8,1,-1
-1,3,7,6,3,3,3,0
5,-3,-10,-6,-2,-23,-3,2
1,-3,0,-15,3,7,2,-1
-1,0,1,28,12,5,0,0
-3,7,16,-1,-6,0,2,-3
0,-5,-18,24,15,-15,-3,2
0,-4,-3,-9,14,3,-1,-2
-2,-1,-2,-18,-32,-4,0,-1
-4,13,13,13,-11,-2,-1,-4
1,-13,-14,7,26,-10,-5,1
-6,-27,-7,-19,-15,-6,-2,-3
0,9,7,-11,-14,5,3,0
-3,3,2,-4,-1,-1,3,-4
2,-9,-17,9,7,-18,-5,0
-6,0,1,-18,6,7,-2,-4
-2,0,9,20,-4,9,4,-2
-14,-6,-23,13,-3,2,1,-4
7,1,-6,0,13,-15,-3,1
-1,-8,8,-11,-16,0,-2,0
-1,2,5,-6,-4,5,1,-2
-6,-9,-22,-4,-7,-4,-3,-1
2,-7,-12,-15,4,-14,-3,6
-3,-5,3,17,7,5,-3,0
0,1,2,5,-18,10,0,-1
-4,6,6,4,30,-1,-2,-2
2,-8,-16,-27,-31,-22,-4,2
-2,-7,-4,-14,-28,0,-5,-5
-4,3,8,26,65,16,0,0
0,1,6,1,-41,-4,2,-1
0,-5,-14,0,43,-15,-4,-1
-7,-6,-20,-28,-46,-9,-6,-3
-2,0,7,21,4,12,4,2
3,10,21,14,27,3,5,2
5,0,-15,0,2,-14,-3,4
-5,-23,-6,-26,-18,0,-6,-3
-10,-1,1,1,-3,10,1,-2
-16,-7,-4,-6,-6,-3,3,-6
7,-3,-11,3,1,-14,-3,3
-5,-5,-8,-4,2,2,1,0
-2,5,7,6,11,12,2,0
4,8,-1,-14,-20,-6,0,-4
-6,-10,-10,16,25,-8,-6,0
-2,3,4,-5,1,-1,2,-5
-5,-3,6,-3,-26,5,3,-1
1,9,2,9,22,2,-1,-1
5,-2,-13,-40,-8,-11,-5,3
3,-3,0,50,9,5,0,0
5,8,9,-15,16,17,3,2
-8,-11,0,18,-10,-9,-4,-7
2,-12,-20,-21,-12,-13,-2,5
5,-7,-14,-16,-8,-1,-6,-4
-17,1,9,-17,-14,7,-2,-6
2,-7,-7,-2,-6,1,3,2
-2,1,1,40,43,-8,-7,-4
-3,-6,2,-16,-23,2,-3,-2
9,4,-2,0,8,8,4,-2
6,7,15,-2,-25,-8,7,4
-22,-14,-13,-14,3,-5,-4,-9
19,8,7,37,48,7,-6,4
2,-6,-12,-11,-8,9,6,3
-15,4,8,3,-3,-6,2,-3
5,-8,-16,-19,-15,-15,-5,1
7,-2,-2,2,9,6,-1,1
9,5,2,-10,-16,10,2,-6
-31,5,15,19,-6,0,-5,-5
-3,-20,-33,-25,-2,-18,-9,-3
0,5,23,3,-11,6,-5,1
7,5,5,9,16,16,2,-1
8,10,7,-11,-37,-6,5,9
-16,-19,-21,27,42,-3,-4,-7
7,1,2,-18,-12,4,-2,-6
-10,5,13,16,11,15,5,1
5,-1,-6,-14,-15,-7,-4,-1
-7,-8,14,6,0,-10,-7,-4
11,-6,-34,4,16,7,1,6
-16,4,9,-12,-16,9,0,-1
-1,3,7,-5,-7,-10,-1,5
43,4,-3,-22,-10,-11,-23,-19
-65,-9,1,17,3,5,1,-8
-3,-5,-4,0,-1,12,12,14
-30,8,17,3,4,-3,1,-1
13,-8,-18,-35,-16,-11,-5,-4
19,-2,2,37,14,2,1,1
12,18,20,-5,15,18,1,0
-24,-13,-16,2,-15,-9,-6,2
-1,5,0,-3,-1,-8,-5,-3
13,-15,-13,-30,-27,2,8,2
-6,-1,6,35,36,17,40,8
7,9,7,1,6,-7,-48,-7
-3,-4,-4,-8,-13,-9,-1,1
10,-1,2,-17,-7,6,12,10
-40,-13,-18,18,0,16,9,-3
-1,16,27,3,11,-10,-1,-9
-11,-3,-3,-27,-12,-10,-5,2
3,-4,6,17,-7,3,9,2
9,4,6,10,15,15,-11,-13
-13,-2,-8,-10,-9,-9,40,7
-8,-1,-11,-7,2,-4,-32,-7
6,15,11,1,-3,2,-14,-18
-13,-12,-2,-3,-31,8,6,-7
1,-4,2,24,34,1,16,12
10,-4,-3,-24,0,-9,-5,3
-8,-17,-31,-50,-75,-7,4,-1
-10,16,44,85,117,33,-31,-13
8,3,-1,30,5,-3,6,12
39,-11,-20,-32,-29,-13,-2,3
-42,16,-5,-14,-14,2,12,2
-11,7,25,-27,-21,6,1,-1
4,2,-5,48,18,5,20,5
19,-7,-6,-13,-1,-7,-15,15
14,12,10,-2,5,8,-10,3
31,12,24,17,0,3,-12,-14
-68,1,-5,-19,-5,-4,13,1
22,-12,-23,10,6,1,-13,3
-5,-6,0,-24,-12,2,46,22
-46,-13,7,18,3,13,21,-11
14,8,4,14,19,-2,-11,-7
-25,-9,-4,-3,-5,-3,24,7
14,-9,-21,-36,-24,-7,14,-5
27,15,25,3,-30,6,-20,5
36,10,-24,14,45,11,36,30
-10,11,28,-17,2,0,6,-7
-12,-2,2,12,-6,-4,-37,-9
14,-1,-11,-9,-9,12,17,4
14,16,18,12,-6,-8,-30,13
-21,-24,-28,-20,-13,-2,8,-14
-34,18,10,12,18,11,15,4
26,10,5,1,0,7,11,-14
-66,-16,-5,1,-6,-1,46,12
26,-7,-8,-12,-3,-4,-26,-23
-1,10,15,-4,2,1,20,5
-14,9,26,-9,-14,8,9,13
29,4,13,3,10,1,60,31
-6,-12,-17,-12,-2,-10,-37,-29
-23,-2,15,35,23,6,23,4
-4,15,9,-6,-7,0,8,0
-13,-7,-4,13,-13,-10,-4,-6
-11,-20,-6,6,-8,0,23,-6
-5,-7,-8,-31,-4,-9,-51,1
24,21,49,-29,-25,-12,16,-18
-27,23,56,51,-5,-14,-84,-17
0,-1,-18,23,43,4,-1,2
-3,-9,-10,-21,-29,-3,5,-19
-22,-9,-21,-38,-7,-7,1,-12
26,8,25,30,-9,0,-33,1
-5,-11,-34,16,18,21,-38,-6
-18,12,29,37,77,5,14,9
25,9,17,-19,-43,4,111,57
-103,8,13,-3,-14,1,2,-32
58,9,-6,7,-11,-7,-15,-14
-36,3,6,21,15,15,70,24
0,-6,-3,-11,-9,-6,12,-20
17,5,17,-14,-12,-7,-128,-26
-23,-22,-18,-11,8,3,20,18
-21,4,26,-2,4,-14,-59,-37
-27,19,29,51,4,-13,-64,-13
-13,-4,3,6,-9,0,-36,8
37,13,18,-34,21,14,43,28
-41,1,-11,44,7,-2,17,-12
40,9,24,-9,-19,-6,82,21
38,-17,-18,-25,-15,5,0,20
48,-6,-33,-21,7,12,37,-4
-61,-24,1,-2,-7,-14,-84,-10
17,26,57,15,-1,2,75,18
21,-6,-11,-29,-16,3,75,16
-12,-40,-67,3,14,2,-99,-43
17,10,20,-7,-4,-10,46,15
-13,-17,-44,11,1,-7,16,-12
-37,-11,-36,-21,-18,1,10,11
-35,-17,7,-4,-2,8,8,-7
-1,10,27,-8,-14,-23,-73,-28
-32,-19,-5,10,5,-8,9,17
-40,-6,-22,-16,-5,1,-11,-38
24,8,31,-2,6,-6,-63,-5
14,0,0,0,-24,1,127,58
20,9,-3,-24,4,-9,19,-11
-31,-31,-31,40,9,13,15,8
58,-8,-20,18,1,-5,22,36
15,14,20,-13,-19,-24,-41,-44
8,-18,-38,-33,-17,-15,52,36
42,24,31,-30,-35,9,-33,-20
17,-26,-19,59,78,13,17,44
-57,16,-6,-15,-24,-16,-128,-74
73,1,3,-49,-41,-28,-32,11
7,-6,-19,19,12,-1,12,17
11,11,28,-8,4,1,-16,10
-8,-2,1,-27,-38,-3,1,1
-9,-33,-71,15,44,-12,12,2
-27,7,32,36,1,7,-56,-19
20,-1,-22,-27,-8,-4,-89,-8
16,-10,-34,-11,-11,-9,22,1
35,19,31,-45,-16,-10,66,28
38,-8,-32,23,15,29,127,58
-89,-9,-9,11,14,8,-22,-64
-9,-1,-4,-4,21,4,37,19
23,17,0,15,3,-12,24,25
20,-5,-3,-30,-23,6,-10,8
-41,-14,-15,-18,-9,-1,-1,-33
31,-3,-10,18,13,-4,-31,-14
-22,34,71,43,6,-5,24,1
90,-3,7,16,19,8,-5,30
5,7,-1,-27,-3,-12,-65,-24
43,17,27,-39,-55,-16,10,9
-56,2,26,42,26,-4,127,71
-26,-13,-24,27,22,22,108,7
56,3,0,-37,-13,-4,-12,11
1,-5,-2,12,2,10,33,13
3,8,12,-5,-17,-25,12,9
3,-3,-14,-32,-25,12,4,7
-32,-7,-5,-5,-5,-20,-14,-2
4,2,10,31,37,26,18,7
32,10,10,15,1,-20,27,15
-128,-12,14,-18,-27,5,-18,-72
62,-3,-10,-4,-22,-4,20,17
-4,-7,-32,-5,35,-6,16,6
7,12,24,-8,-18,-7,5,7
-20,-20,-38,-24,-14,10,8,-3
10,-5,-3,-10,1,2,-1,1
9,6,10,-1,-2,-4,2,6
-10,2,14,-5,-15,-17,0,-5
-12,8,10,7,-32,12,0,0
3,-8,-3,41,78,10,-3,1
9,-1,4,-14,-7,0,40,8
12,18,19,-4,2,-6,11,28
12,3,-12,-5,-25,8,37,11
1,-7,-5,10,0,10,16,0
21,0,5,6,12,4,14,13
-3,8,18,20,28,-2,11,-3
1,-5,-16,-37,-60,-3,-5,5
-1,-8,-6,4,32,7,-1,0
-2,-2,-7,-28,-30,2,0,-2
-1,9,15,18,1,-6,7,1
-5,0,5,48,49,12,-2,5
4,-4,-10,-10,-11,-1,-1,-1
-5,-6,-5,-14,-13,-7,-3,-2
-2,2,7,-7,-15,-12,1,-8
1,-3,-3,-29,-19,16,-3,-2
2,-3,-3,33,21,1,-2,-1
0,1,-3,-15,-9,-4,-1,0
-2,7,19,23,9,-14,3,-2
1,2,7,-12,4,14,-5,3
-3,-2,-3,13,5,-2,-5,1
-3,0,-3,-38,-35,-4,-3,-4
-7,1,14,38,21,-16,3,1
0,-3,-6,-15,13,22,-6,-4
5,-1,3,13,5,5,1,-1
-4,-3,0,-10,-25,-17,-5,1
-4,4,5,-10,-14,-8,0,-4
0,-5,-8,16,15,10,2,3
0,-3,-7,-13,-3,3,1,0
0,-2,2,13,-8,-3,-1,0
-4,5,5,4,6,4,2,1
-1,-3,-8,-5,-13,-1,-6,4
0,-1,-4,-28,-9,-4,-3,-2
-1,-8,-8,-4,-10,-1,0,-2
-1,10,23,53,47,2,4,-1
5,-5,-11,-9,-24,-9,-4,3
-3,0,1,-25,18,0,0,-3
-1,-2,-2,22,-11,-4,-6,-5
-8,9,17,-22,-27,-1,-1,-6
-3,-7,-16,4,7,-5,-6,-3
3,-6,-4,-3,-4,2,-2,1
-4,-7,-11,0,11,2,-1,-1
0,12,37,15,-5,5,4,0
-7,-22,-44,-25,-15,-9,-8,-5
1,1,3,5,9,1,0,-2
0,-7,0,-7,-9,5,-2,-4
-1,12,28,54,33,3,1,0
3,-2,-35,-31,-25,-7,-5,6
-2,10,50,-8,-16,-3,-2,0
-1,-4,-5,9,6,2,3,-2
-3,9,-12,-3,-9,3,2,-4
2,-14,-7,0,7,-7,2,10
-3,3,-2,-11,2,1,-2,1
-5,-24,-31,-3,-7,3,0,-5
1,14,38,12,-14,4,1,5
-1,-15,-59,2,35,-10,-6,1
-2,-8,15,-5,-15,-3,-9,-5
-2,0,5,-15,-14,-1,-9,-17
-5,10,15,-1,-21,16,8,6
4,-15,-20,5,8,-11,-6,0
-2,1,13,37,64,5,-1,-5
3,17,15,-41,-42,-5,0,5
-11,20,109,40,17,4,3,-15
4,1,-24,12,1,-5,-2,5
-3,-17,-25,-15,-1,2,0,2
-4,-24,-67,-29,-24,-3,1,3
1,26,57,5,0,14,2,-1
2,0,1,-4,-7,-17,-2,0
1,-10,-15,9,-10,-1,1,-3
-3,0,3,-3,25,5,0,-1
-1,8,12,26,3,1,2,-1
-3,-10,-16,-49,-31,-25,-6,-3
-6,-6,-1,31,20,9,1,-2
0,12,23,7,32,5,2,-1
1,5,5,-7,-30,-4,-3,0
-3,-14,-14,-45,-25,7,0,-1
1,-1,-5,34,18,-6,-2,1
-3,3,4,-1,10,0,3,0
-3,3,6,5,-12,3,3,-3
4,8,11,0,20,-13,-3,5
-2,2,5,12,-12,-5,-4,-1
-3,-3,-25,-21,-9,1,-4,-3
-6,-1,11,9,-3,4,2,-4
6,6,-12,-7,-1,-18,-5,4
-1,-1,4,-9,-14,2,-3,-4
2,7,8,2,11,3,0,-2
4,14,9,6,-13,10,6,0
-2,5,17,4,42,-11,-7,-1
2,-20,-73,-8,-30,-4,-2,-1
-4,3,18,6,-22,-6,-3,-5
-1,6,19,-13,-11,7,1,-3
5,3,1,40,34,-12,-2,3
0,-14,-19,-13,-10,-14,-7,-1
-5,-17,5,-16,-12,19,4,-6
-3,5,11,-8,-13,-4,-1,-2
-2,-7,-45,-9,-1,-19,-6,-3
-7,-19,-7,-13,-21,-3,-5,-3
3,1,-15,21,25,6,-4,-13
1,6,14,-6,-11,3,6,14
5,2,6,-16,-15,-17,-5,3
-6,3,0,10,13,-1,-7,-7
-3,11,19,-7,-16,7,3,-3
-5,1,-3,10,30,3,0,-1
-2,0,25,-31,-40,-23,-8,-1
0,-6,-18,25,44,7,-4,-5
3,7,13,19,2,2,1,0
-2,5,7,-14,-17,1,7,0
5,5,9,-25,-23,-20,-7,-3
-6,-32,-42,-13,-11,-5,-3,-3
2,-5,-9,24,30,8,5,1
-3,8,19,3,-9,-2,0,-2
4,-2,-10,-7,-8,-17,-7,2
-2,-3,-7,4,6,2,-2,-3
-4,3,12,-10,-8,2,-3,1
-5,-6,-14,-15,-24,-1,4,-4
3,0,-1,-16,20,-13,1,-1
-5,-3,4,39,17,6,-1,-4
-2,-11,-25,-7,-1,4,-3,-2
-5,9,8,-34,-28,-5,0,-2
0,-12,-39,27,5,-19,-5,0
4,2,30,33,49,18,3,5
2,17,35,-7,-20,-1,-2,-5
2,0,-11,-13,-11,1,2,1
-1,-7,-15,-17,-12,-20,-9,0
1,4,10,-17,-27,3,-1,-2
-4,-12,-1,30,38,2,-2,-4
-4,4,-1,-13,-12,-1,2,0
3,-10,-30,-19,-8,-19,0,5
1,0,1,18,9,3,2,-1
1,6,7,-8,-3,-1,2,-4
-6,6,10,-1,-33,-4,-1,-3
1,-5,-8,-3,32,-11,-6,-3
0,-12,-7,17,21,8,1,-1
-2,3,2,-5,-14,2,-1,1
-1,6,19,-4,-13,-4,-3,-2
-1,-7,-11,-37,-27,-20,-7,-2
-3,-10,-25,17,31,2,-1,-1
5,19,38,22,12,10,4,1
0,-1,-20,-7,-10,3,2,2
3,2,39,2,12,-19,-1,1
-1,5,16,4,1,1,-4,-2
-2,5,6,1,-1,2,-3,0
-4,-1,-13,-13,-13,-4,-2,-2
2,5,16,-11,-11,-13,-6,0
-2,-10,-4,28,37,6,2,-3
0,-2,-19,-10,-19,2,3,-2
-3,12,24,4,14,6,0,-1
0,-8,-18,-4,-35,-23,-8,1
0,-1,4,-38,3,1,-5,0
0,2,11,52,36,9,2,0
1,14,32,3,4,3,1,-1
1,-8,-13,-16,-26,-21,-3,2
-3,-7,0,-8,-10,0,-5,1
-1,-1,1,-14,-10,7,1,2
-6,5,5,0,4,-6,0,-5
3,-4,-12,6,-10,-12,0,2
-1,-9,0,22,44,15,4,2
-4,9,22,-7,-24,-3,1,-4
-5,0,-33,-4,3,-4,-3,-1
1,-7,-10,-32,-44,-24,-8,-1
-1,0,1,11,32,11,1,1
-2,2,27,34,22,8,3,0
-6,1,-2,-18,-27,-9,-4,-5
4,-13,-39,-8,5,-15,-3,3
0,10,33,17,2,6,0,-2
0,-4,-11,-8,-3,6,2,2
-1,5,7,-11,-9,-4,1,0
1,-10,-16,-28,-35,-14,-8,-1
3,-1,-1,43,64,15,3,1
2,4,7,10,-12,6,4,3
-6,6,6,14,15,1,-1,-2
1,-9,-8,-30,-20,-21,-6,-2
-3,-10,-37,-14,-10,1,-3,-3
-2,4,12,1,10,10,3,1
-2,-6,-1,-12,-10,-2,-2,-2
2,-3,-18,6,-7,-16,-1,0
1,0,14,3,6,4,-3,-1
0,-5,-16,-3,-1,6,2,-1
-2,10,16,-5,-6,-4,2,-2
3,-12,-28,-29,-28,-17,-4,4
1,3,8,35,57,8,-3,0
1,8,26,-19,-17,11,3,2
-3,5,5,-7,-22,-2,0,1
0,-8,-17,21,26,-14,-4,0
2,7,26,-10,-28,-1,-4,-1
0,8,9,8,31,16,4,-1
-3,-4,-17,15,-27,-2,3,-2
3,-4,-6,-7,40,-14,-3,3
1,-1,5,-3,5,8,0,0
-1,6,7,3,-21,4,2,-2
-5,-4,-17,-23,-23,-7,-2,-4
-1,-6,-4,-1,3,-12,-2,-2
1,-3,3,24,1,-1,-1,0
-7,-16,-14,-6,-5,12,-1,-2
1,4,4,-4,12,-2,1,-4
3,-6,-14,-29,-28,-13,-6,-2
-1,10,31,7,-8,0,-3,-2
-8,-22,-39,9,17,11,-1,-3
-2,7,15,12,19,3,2,-1
5,-4,-3,-13,-5,-11,-6,3
-3,-6,-6,-15,-40,-6,-6,-4
-2,4,3,-1,13,15,1,-2
-3,6,6,13,13,-3,3,3
2,-25,-45,-6,-7,-17,-5,0
-3,2,9,-20,-17,2,-1,-1
0,-2,-22,39,29,14,2,-4
-3,6,4,-6,-9,-4,2,-1
3,-8,-16,-32,-37,-13,-5,1
-1,7,11,14,24,6,-1,-1
-3,-3,-3,9,3,11,2,-3
-3,2,13,-6,-4,-5,-1,-3
4,-3,-10,-9,-9,-10,-3,2
0,-13,-25,-1,7,1,-1,0
-3,1,4,-12,-12,5,3,-4
-2,1,6,-16,-17,-14,-4,-2
2,-4,-10,17,27,0,1,2
0,0,11,19,4,3,0,1
-4,-1,-20,0,9,14,4,-4
0,2,5,-11,-19,-9,-3,-3
-1,-21,-43,-33,-32,-17,-7,1
-1,2,21,26,4,5,0,0
-3,1,10,4,6,10,1,1
0,3,5,6,22,4,4,2
1,-2,-11,-1,-11,-14,-5,3
-2,-1,1,-2,9,7,-2,-1
-2,5,12,-16,-35,4,1,-2
1,9,9,6,-5,0,0,1
1,-8,-12,11,31,-5,-3,1
-3,-1,7,-7,-19,2,0,1
-3,1,-2,-42,-14,2,-4,-2
-3,7,-3,39,-35,-5,0,-2
3,7,18,56,92,1,1,1
-4,-1,0,-27,-28,-5,0,-2
-1,-2,-1,-16,-24,11,0,-4
-6,3,-6,-12,-21,-11,-1,-3
6,-1,-3,-8,19,-4,-2,0
-3,-17,-22,9,2,3,-1,-4
0,2,7,-4,-6,10,-2,-2
-6,3,14,-1,3,-4,-1,0
1,-15,-38,0,-19,-13,-2,-1
1,-1,11,6,31,7,0,-4
-2,2,10,3,14,20,3,0
-2,-2,-2,-12,-22,-9,-5,-1
-1,-3,-4,-12,-7,-11,-4,1
-1,-14,-30,-15,-11,-1,-3,1
0,11,15,13,-5,20,5,1
-3,-7,-18,27,12,-3,0,-1
2,-3,0,4,39,-3,0,1
-2,0,-2,-23,-31,-4,-6,-3
-5,4,12,-6,-12,13,0,-5
-3,5,-1,1,-6,-7,3,1
2,-5,3,5,21,-3,-3,1
-1,-8,-22,-9,-16,-2,1,-3
1,6,21,8,6,11,2,-1
-3,4,2,4,1,-8,1,3
1,-5,-7,-21,-5,-9,-4,0
0,-2,1,-8,-24,-5,-3,-1
-2,4,10,25,24,19,6,2
-2,3,1,26,21,-5,2,1
-2,-13,-26,-13,-9,-6,-5,-1
-3,0,11,8,5,3,-1,0
-4,-1,-3,-11,-9,11,1,-3
-3,-1,-12,-35,-30,-13,-3,-1
1,-3,2,2,11,-6,-7,0
-2,-11,-33,13,4,5,1,0
0,7,18,23,9,18,6,1
-3,3,5,-8,1,-11,-3,-2
3,-6,-8,-9,-25,-10,-1,0
-3,-3,0,-12,16,8,-3,-1
2,16,38,22,7,16,5,-3
-5,5,14,11,-9,-13,-5,-3
3,-5,-10,-11,-13,-6,-5,2
-2,0,2,-17,-2,0,0,0
-2,-7,4,0,-2,19,4,-3
-2,6,5,24,34,-5,-2,1
-7,-25,-35,-38,-43,-15,-5,1
1,6,12,-3,0,8,1,-1
0,7,13,31,27,15,3,-3
-1,1,2,-27,-30,-14,-3,-1
0,-3,-7,-2,6,0,-8,-3
-2,-1,3,7,14,4,2,-3
-3,4,8,-12,-18,12,3,1
0,7,9,35,42,0,2,1
1,-6,-4,2,-19,-8,-3,1
-1,-5,-4,-15,-10,1,-1,-2
-3,4,7,-3,-9,14,-1,-2
-2,5,-5,-13,-6,-11,-1,2
1,-4,11,-2,-2,-3,-4,-2
-1,-1,2,8,7,6,-1,-3
0,6,15,2,-3,12,2,-1
-2,-1,-6,-4,11,-7,-1,-2
-2,-7,-8,-16,-23,-6,-3,0
2,-1,20,-14,0,8,-1,-3
1,8,17,37,41,19,6,-2
-3,1,-4,-11,-18,-13,1,1
0,-7,-3,30,12,3,-1,-1
-5,-2,-5,-6,17,-2,3,2
-3,4,-6,-20,-44,10,1,-4
-4,0,0,-25,-1,-14,-3,-3
4,-1,-4,26,11,3,1,4
-1,-6,-5,-7,4,3,-1,-4
-3,2,6,-3,-5,12,5,-3
-4,1,-3,-12,-24,-12,-3,-1
1,-5,-20,-14,9,-6,-4,0
1,0,1,16,1,10,0,1
-1,11,20,25,34,22,7,0
5,3,-4,-8,-5,-12,-1,1
1,-12,-15,-29,-41,-9,-5,-2
-2,0,4,10,35,9,-1,-3
2,2,8,34,19,20,5,-1
-3,-2,-7,-20,-29,-19,-4,-3
1,-7,-10,-18,2,-1,-2,-3
2,5,18,25,6,3,0,-2
-1,5,6,-1,1,14,3,-3
-7,-4,6,-12,-11,-17,-4,0
2,-7,-12,-20,5,-4,-2,1
-4,-4,1,24,-3,5,1,1
1,15,17,-1,12,19,6,-3
-2,1,-10,2,-12,-16,-4,0
-1,-11,2,-45,-33,-8,-7,-1
-2,-7,-42,34,41,13,-1,-3
1,19,28,16,7,17,6,-2
-1,0,2,3,15,-14,-5,-2
1,-8,-9,-26,-17,-5,-4,-2
-5,-5,1,-10,-24,2,-1,-7
-8,5,10,1,0,11,5,-1
11,17,5,31,19,-6,-2,2
-1,-9,-12,-15,-8,-2,-3,1
0,-5,-3,-10,-9,-1,-3,-1
-1,5,6,-16,-12,16,4,2
4,2,-2,38,27,-13,1,-1
-13,-33,-10,-21,-8,-4,-4,-2
2,0,-23,-10,-10,2,-1,-2
-2,5,22,-6,-8,10,0,-3
0,-3,-9,33,17,-12,-2,0
-3,-8,-7,-6,8,-1,-1,-1
-2,-3,-5,-38,-54,-3,-4,-3
-2,7,21,25,56,22,5,-4
0,-1,-14,17,5,-13,-1,0
2,-8,-7,-19,-24,-6,-1,-1
0,0,-4,-3,-3,6,-3,-2
-4,10,16,-13,4,17,5,-1
6,3,2,33,2,-16,-3,2
1,-10,-39,-13,8,0,-6,-4
-5,-4,-2,-1,-11,0,1,-5
-4,6,34,-7,0,14,5,-2
-3,-1,2,-20,-18,-14,-4,-1
5,-8,-14,15,18,2,-4,-1
0,2,0,4,-8,3,-1,0
-3,15,10,2,24,21,6,-1
-4,-7,-11,-23,-24,-23,-4,0
1,-6,-9,3,-24,-1,-2,2
2,-2,5,29,82,14,5,0
-4,8,9,3,-14,13,6,-1
2,2,-11,-30,-26,-21,-9,-1
0,-5,-3,-1,-1,-6,0,-3
0,2,6,-5,1,5,3,3
4,13,26,37,33,18,6,3
-1,-15,-35,-27,-23,-21,-5,3
-6,-7,1,-6,-5,-5,-4,-3
0,-3,3,2,4,6,0,-3
6,10,12,3,-6,14,4,2
-2,0,-7,-3,1,-17,-7,-3
-6,-11,-16,-43,-45,-5,-4,-6
0,-4,4,38,63,5,2,-4
-1,6,17,17,2,17,7,0
2,-5,-7,-17,-18,-17,-6,0
4,-12,-33,-47,-27,-8,-4,-3
-5,4,17,31,25,8,0,-2
0,2,9,17,1,18,1,2
5,2,-2,0,39,-10,-1,3
1,-7,-7,-17,-30,-4,-6,0
-4,-3,-4,3,-22,-3,-3,-4
-4,7,16,10,25,17,3,-4
5,8,-4,4,3,-18,-2,0
-5,-11,-12,-9,-6,-4,-5,-8
5,5,3,-25,-20,-2,4,-1
0,9,16,31,9,19,-11,-3
-10,-6,-11,6,11,-17,1,0
5,-10,-9,-15,-19,1,0,3
5,3,1,-20,-24,1,0,0
-19,2,13,45,39,21,2,-4
-7,-2,-8,-22,-14,-19,-2,1
11,1,7,4,11,7,2,7
-2,7,6,17,10,2,-4,-4
6,7,26,-9,-29,3,0,-1
-3,-6,-13,-24,-6,-21,-5,1
0,-1,-7,9,3,1,-5,-11
-16,3,11,11,20,9,0,-4
-4,-4,-5,-6,-18,8,2,-2
5,-1,-13,0,-9,-13,-2,0
6,-8,-9,17,25,0,-2,1
-2,-2,1,-23,-20,3,2,-4
-9,2,11,1,-22,8,2,-7
-10,-3,-10,-12,12,-16,-3,1
11,-8,-5,12,-13,-4,-3,4
-5,-6,0,1,23,5,2,-4
1,5,9,12,-3,14,1,0
-11,-2,-5,-8,-3,-20,-8,-4
6,-8,-14,-24,-25,-2,-3,-1
-7,-4,-1,14,20,7,0,-7
11,12,17,12,3,11,4,-1
11,-4,-15,-3,-2,-17,-3,12
1,-7,-3,-8,-2,3,0,3
-7,-3,-2,-10,-5,2,-5,-9
-6,12,18,8,-2,11,5,4
2,-4,-16,-15,-11,-18,-5,-2
12,-4,-4,-20,-35,3,-2,4
-7,-11,-6,31,75,4,1,-4
-8,11,21,19,-14,9,7,-4
3,-1,-19,-11,-6,-21,-12,-3
-6,-12,-24,-27,-19,0,-3,1
3,16,21,3,-3,-1,-2,-3
-1,1,-2,15,2,10,5,-4
-1,-9,-16,-12,5,-21,-5,-3
-2,-20,-60,-19,-12,-1,-3,0
17,14,42,-1,0,0,-3,3
-17,5,20,4,-4,5,7,-9
-1,-10,-19,-15,-10,-19,-9,-1
1,-3,-12,0,8,6,8,6
-4,-5,-6,28,17,6,4,4
17,12,9,-5,-13,5,4,-2
-2,1,-6,-13,11,-12,0,11
8,1,0,6,18,3,11,7
-4,-3,9,0,-25,9,8,3
-28,3,6,25,43,7,-13,-18
16,-4,-17,-31,-21,-19,1,3
0,-2,4,-6,-18,0,2,-4
8,5,-7,-2,-8,2,5,8
-22,-6,5,-5,1,10,5,0
14,4,-11,-2,-4,-18,-11,-4
17,-5,-5,-2,10,7,2,-1
-21,-1,0,-27,-12,1,2,-4
-7,-8,3,30,10,10,2,-7
13,0,-10,-3,17,-16,0,10
1,5,6,10,-6,3,5,-6
7,13,14,-6,-5,1,-2,6
5,9,3,0,-1,11,3,-1
10,-3,3,5,10,-18,-1,16
-22,0,-12,-6,-1,2,-3,-4
12,0,10,7,-7,-1,-2,-10
-26,-3,-10,-5,0,3,4,-15
36,2,-6,-14,-28,-21,1,40
-22,-4,7,22,54,16,7,-8
8,-8,-6,-11,-8,-2,-4,2
-13,16,13,-6,-20,-2,10,-11
2,-8,-15,-11,-26,-22,-34,-8
4,-3,1,26,48,6,0,9
-1,-1,-2,-4,-20,6,4,-11
-12,0,-1,-26,-3,-8,-3,-10
6,-3,-9,-4,-11,-20,-3,1
-5,-5,-5,-5,0,5,1,2
4,2,-3,-7,-7,-5,5,0
5,9,11,-10,-18,-1,-10,-1
4,-2,-4,19,7,-13,-5,7
0,-5,-19,4,42,8,4,7
1,4,12,-27,-41,0,5,3
-3,-1,-9,13,23,10,6,5
15,2,-4,1,0,-13,33,8
-4,-17,-12,32,18,1,-69,-19
-22,2,-5,-20,-24,-7,3,17
12,-5,7,-5,-11,1,10,-19
-36,-8,-16,-25,-13,-19,-9,4
7,-1,-2,2,-7,8,19,6
-9,8,2,-2,17,3,17,-1
5,-4,8,-16,-26,-9,-30,-23
-11,-14,-19,20,24,-5,5,6
-3,1,5,12,-4,5,0,-3
31,0,6,2,10,5,33,15
-79,-2,19,-9,-14,-2,-24,-23
1,-14,-56,-25,-2,-8,-4,9
45,8,21,-7,-28,-6,11,-2
-37,-7,-12,13,39,9,9,-10
4,10,19,12,6,-1,3,0
-1,-9,-19,-24,-15,-11,-28,-17
2,1,-2,-20,-8,1,-3,-4
21,2,2,6,-18,2,45,24
-35,2,1,-26,18,9,2,-8
14,1,-3,63,10,-17,-38,-5
-16,-11,1,6,29,-2,25,-7
1,1,-4,-19,-30,-4,-25,-14
-33,2,8,-18,-15,-6,16,3
12,-9,-22,-18,-31,-17,-20,-9
30,7,0,-9,24,19,37,5
32,-1,22,58,9,-4,-65,-16
-26,-4,-8,12,-16,-11,-2,-5
-10,-8,-10,-25,-13,-12,-16,6
21,-8,-23,-19,-13,-3,25,3
13,13,30,-4,-14,-3,20,5
-23,-7,-6,-10,17,-7,-16,-21
21,9,15,14,1,-5,22,3
-24,-28,-53,-4,-10,-1,-14,-8
15,9,18,-9,-4,6,25,19
43,16,9,16,9,-3,-61,-10
-41,-13,-9,-7,4,-6,-37,-12
22,0,1,-12,-11,6,10,14
-15,5,12,21,1,-4,-21,-14
-23,5,10,6,11,0,19,3
37,-3,-19,-20,-6,-8,-4,7
-27,-12,-15,-28,-10,-1,2,-14
29,3,5,0,-20,-8,3,-1
7,5,13,-5,5,-10,-68,-22
31,8,3,23,16,8,27,19
-8,2,12,15,12,1,1,2
-1,-4,0,-32,-23,-11,-2,-1
-6,12,23,27,7,2,19,2
49,5,-8,-34,-10,-7,-77,-11
-18,-5,1,8,-21,-1,16,14
-14,-7,12,11,37,7,-6,-7
-6,25,6,-2,-8,-8,48,3
-27,-22,-14,-40,-19,-4,-61,-18
-13,-9,-3,6,-12,-2,-11,-2
9,9,9,16,30,2,3,13
11,-1,-1,8,-18,-10,-46,-26
15,5,-3,-16,6,5,32,17
-2,2,6,-16,-20,0,6,13
-11,-5,2,20,14,-3,-55,-26
-7,0,0,6,10,-5,2,-3
31,-4,-30,-25,-14,6,9,22
6,-9,9,2,-9,-2,-2,-3
3,-3,-7,-25,-5,-6,4,0
-11,9,14,16,-8,-4,-7,1
-12,-7,-7,2,17,3,-1,-5
23,-4,7,-5,3,2,19,-2
-32,-10,-24,-10,-16,-11,-3,2
4,0,4,-3,0,-6,8,0
5,-4,10,-15,4,-1,-83,-32
-9,-8,-3,-9,-35,-4,5,-8
-4,-1,1,42,56,1,-17,8
55,16,-4,-8,2,-2,8,14
-8,-15,-20,-9,-9,3,3,11
6,2,5,-43,-26,-3,-7,-11
11,-3,-2,17,-1,-10,-17,-5
-12,8,19,8,4,-8,-2,-5
-5,-6,-22,-31,-6,-4,-79,-12
0,5,11,-7,-18,5,9,13
-10,1,2,37,37,3,18,7
14,5,5,4,-24,-8,6,2
-11,-20,-43,-39,-1,6,-2,3
16,1,0,9,-6,-2,-4,0
5,6,6,-4,-1,-4,-1,2
3,5,5,1,-3,5,5,1
5,-1,-12,15,33,10,2,2
2,-3,-5,-10,-17,-7,0,-7
-14,-3,0,5,10,-1,1,-3
2,1,3,-10,-29,-10,-6,-3
6,-4,-11,-16,15,23,4,4
0,2,3,24,21,2,1,-7
18,3,5,-21,-15,-3,2,7
-7,1,1,4,-8,-6,1,-2
-1,-4,-15,-2,16,1,-10,1
3,-4,4,-1,-20,0,0,-3
-3,-2,4,12,21,-5,2,-1
-3,4,1,-14,-24,-11,-2,-2
2,-5,-9,2,16,1,-2,4
3,-3,-3,9,-5,0,-1,-1
-1,2,0,3,16,2,2,-3
-4,6,5,-31,-34,-4,1,-4
1,-12,-20,24,34,2,-6,0
0,-3,8,-20,-11,5,1,-3
-5,1,-5,-15,-12,4,2,-2
2,9,10,27,-46,-2,0,-2
4,-6,-5,23,80,3,-3,3
1,-5,-6,-25,-12,1,2,-3
0,5,10,-6,-21,-2,-1,6
-1,2,-2,-4,-8,-18,0,-3
1,-13,-25,-4,15,15,-5,3
-2,-5,-5,-7,-15,-6,0,2
-4,-2,8,-30,-23,0,-1,-4
-3,6,2,33,24,-6,2,-2
5,-5,-15,-11,-14,-12,-9,-5
1,10,22,13,27,13,3,11
1,-2,2,15,9,8,6,5
-2,8,-20,-14,-26,-9,-3,-5
1,-6,11,-9,-1,-4,-4,1
1,10,19,-10,-12,1,-1,-2
-1,7,40,4,4,10,-2,-3
3,12,10,10,-2,0,3,0
3,-8,-10,-10,0,-7,-8,-11
-4,-7,-14,-4,-3,-2,0,-4
5,5,17,-18,-29,4,2,0
1,12,-2,26,51,2,4,3
3,-13,-17,12,-5,-4,1,21
1,-10,10,-16,-5,-2,-3,-11
0,13,13,5,-14,8,-2,-3
-6,0,-50,-8,-21,-13,-2,-5
-5,-17,-42,2,11,-6,-4,0
4,18,30,21,35,13,-1,7
1,11,26,-1,3,7,5,1
-5,-4,-13,-20,-20,-9,0,5
-2,-25,-17,-17,-23,-13,-9,-1
-6,-16,-12,-20,-50,-9,-8,-7
0,12,14,40,67,20,9,0
-1,12,61,10,-1,0,0,-3
6,-3,-26,-12,-16,-8,-6,1
-1,-6,-10,-25,-22,-2,-3,-2
-3,-10,-19,15,16,8,6,1
-3,9,24,12,-7,-9,-1,-2
-1,-11,-30,-49,-27,-12,-10,-2
2,5,19,37,21,7,3,-4
1,17,49,19,16,12,0,-2
4,0,-19,-12,-9,-2,6,20
-4,-11,-40,-20,-20,-9,-5,-5
-3,-7,-4,-20,-6,5,-3,-6
3,11,29,46,24,11,2,-2
4,12,13,-1,-9,-5,-2,1
-5,-23,-32,-20,6,-6,-6,-7
3,17,65,-10,-52,-2,0,-1
3,0,-18,38,90,21,6,4
-1,3,17,-2,-23,-5,3,-2
-5,-30,-40,-26,-9,-8,-4,-3
-1,0,7,-21,-25,-1,-4,-2
-5,2,3,36,3,13,3,-1
-8,-16,-42,-13,23,-5,0,-4
6,14,56,19,0,-2,-1,5
-7,-32,-79,-25,-6,-1,-3,-6
-8,10,41,-3,-26,1,-4,-5
-2,9,24,-3,19,2,-2,-4
-3,-29,-69,-5,2,-4,-8,0
1,14,10,0,-4,2,0,2
-10,-25,-69,-16,-17,2,1,-8
-5,-10,-34,-20,-29,-7,-1,-7
9,20,49,45,70,4,0,7
-8,-21,-40,-24,-22,0,-6,-3
-3,5,9,-8,-19,10,-1,-5
-5,1,-1,18,0,-12,-2,0
2,4,-1,-17,-6,-5,-3,-2
2,2,16,15,13,3,1,1
-3,12,36,-3,0,16,4,-6
-3,-30,-121,-18,-26,-12,-1,8
6,9,7,-7,13,-3,-2,1
-13,-52,-66,-4,4,3,-1,-8
4,19,42,0,-6,8,4,3
-8,3,16,-41,-54,-16,-4,-9
1,-10,-56,47,73,0,0,-1
1,10,49,-30,-27,1,-6,2
-5,-12,-88,34,-5,14,6,-2
2,-1,19,-3,49,-7,1,0
-1,-4,10,-21,-46,-13,-7,-2
-2,-6,15,4,12,6,-1,-3
-4,6,17,13,-8,5,-1,-1
-4,3,0,-20,-14,-10,-1,-3
0,-5,-7,-10,-17,-5,-5,2
2,3,0,0,22,11,-2,-1
-4,-3,11,6,-3,14,4,-2
-2,5,-8,-17,-8,-11,1,0
2,7,33,22,-7,-4,1,2
-6,-20,-24,20,25,5,-1,-3
1,14,26,-18,-28,14,5,-3
3,7,3,7,39,-3,-2,-1
1,-12,10,-23,-14,-6,-6,0
0,1,0,37,24,3,1,3
-7,-24,-78,-18,-27,6,-1,-5
-1,1,11,-12,-12,-14,-3,-3
-1,-11,-14,-10,-8,-5,-7,-5
3,4,13,15,38,14,2,1
-3,0,-2,10,-12,9,3,-2
-3,4,8,-14,-12,-8,-3,0
-1,-6,-31,-17,-5,-6,-3,-4
-2,-2,16,-4,-1,4,2,-2
-3,-7,3,17,-2,11,2,-3
1,3,4,9,1,-8,-2,3
3,3,-3,8,11,-1,-5,1
-4,-6,-4,-13,-18,1,-1,-3
1,14,20,6,15,17,4,0
-5,-8,-25,-13,-13,-12,-3,0
1,5,31,-12,-11,-9,-6,-4
-7,-32,-87,-21,-35,-3,-3,-4
-1,7,33,31,55,24,4,1
-3,-3,-2,-12,-36,-16,-1,-1
-1,-6,-11,-2,10,-1,-7,-3
-2,-3,2,-15,-15,3,-1,-3
-4,13,23,21,2,8,3,-6
3,18,21,-12,10,-10,-2,1
0,-25,-24,10,8,-4,-2,0
-3,0,1,3,5,1,0,-3
2,9,26,-16,-19,13,2,-1
0,-6,-28,-1,-9,-9,-4,0
3,-14,-35,-5,9,-2,-4,1
-4,-8,-19,-31,-36,-1,1,-2
0,4,14,34,36,9,4,0
0,-2,22,23,2,-11,-4,0
-1,-8,-21,-18,-7,1,-1,-1
0,-5,-3,-17,6,4,1,0
-2,-1,5,-10,-27,5,0,-4
-4,6,9,18,-15,-16,-3,-2
4,5,22,23,60,4,1,4
-8,-34,-109,-19,-39,-4,-2,-5
-2,4,20,-7,19,18,2,-4
1,0,1,-4,-12,-11,-3,1
2,-6,0,-25,-22,-5,-4,-2
-2,-4,-6,7,1,0,-2,-3
-2,10,19,21,15,18,4,-2
-3,-7,-10,-16,6,-18,-4,-2
2,-9,-6,3,-25,0,-2,-2
-3,-6,-1,2,21,2,-1,-5
-4,18,32,-15,-27,7,-1,-4
-4,1,-8,-8,-13,-15,-2,0
1,0,5,12,5,3,-3,-1
0,3,13,3,16,9,3,1
0,8,12,11,5,16,3,2
-3,0,-15,-53,-32,-22,-6,0
-3,-25,-5,38,-2,1,-4,-5
3,0,-7,29,52,8,1,1
-2,16,30,-19,-20,9,-1,-4
-3,-1,-12,-10,-25,-21,-7,-3
-1,-2,3,3,-4,-4,-3,-3
-3,3,11,3,10,1,-5,-2
-4,0,9,-9,-12,9,3,-4
0,1,-2,-17,17,-7,1,1
2,-2,-3,35,14,-3,0,0
-1,-5,-9,-34,-42,-3,-3,-5
-2,16,30,1,8,12,1,-1
-1,3,-3,18,33,-13,-2,1
2,-5,-6,12,-11,1,-3,1
-3,0,-2,-25,-16,-2,-2,-3
-2,10,11,3,-11,14,3,-1
-2,-5,-23,-7,13,-15,-5,1
0,-10,0,-1,-5,-2,-2,0
-4,-5,-18,7,3,-1,-4,-4
-3,5,19,-3,-9,16,4,0
1,1,-2,3,0,-18,-4,0
1,-7,-3,-11,-5,-3,0,-1
-2,4,6,-17,-21,-4,-5,-4
2,17,32,18,5,14,1,-2
1,-6,7,-12,-19,-12,-4,0
-2,-11,-22,41,88,7,1,2
1,2,2,-32,-30,4,-1,-1
-3,3,4,3,-9,8,1,-5
-3,-3,-10,-9,-13,-16,-5,0
1,-4,2,-5,8,-3,-3,0
-1,-3,-12,10,-8,2,-3,-3
-5,8,15,1,2,11,5,-3
0,-4,-11,-19,-18,-15,-7,3
0,-5,-2,-12,9,0,0,-1
0,3,9,31,19,-1,1,-5
0,11,28,-5,-20,15,6,3
-3,-13,-46,4,13,-18,-5,-4
-1,-6,-1,-21,-11,-2,-4,-3
-3,-6,4,-26,-42,-4,-4,-2
-4,2,3,15,48,11,2,-1
-2,-9,-7,-27,-37,-19,-6,-3
0,-9,0,29,20,4,0,1
1,3,2,14,27,7,1,0
-1,11,26,7,-15,11,5,-2
-2,-12,-32,-27,-16,-18,-3,-2
0,-3,-6,3,-2,-1,1,1
0,1,18,-10,-1,3,-3,-3
-6,-2,-8,5,-13,9,0,-5
1,-3,-5,-45,-13,-20,-4,-1
0,-2,9,57,20,0,-1,0
1,-2,2,9,35,6,0,0
-6,0,4,-54,-86,-2,0,-3
0,-9,-11,27,83,-3,2,1
1,2,8,32,20,5,0,1
-4,-2,2,-10,-20,-3,-1,-4
-3,3,6,-21,-24,5,-3,-2
-1,-8,-29,-15,-10,-17,-4,-4
0,-2,2,-13,-2,0,-3,0
-4,-1,6,13,-2,0,-1,-3
0,13,22,6,10,11,1,-1
3,-1,-14,1,-4,-21,-3,0
-1,-14,-1,-24,-19,0,-2,-5
1,7,8,28,33,7,5,0
-2,10,26,6,-1,9,3,0
0,-3,-20,-15,-12,-22,-7,1
1,-4,7,-6,-16,1,-1,1
-2,8,18,15,21,9,2,-1
-4,3,8,1,-17,7,3,-1
1,-4,-9,-16,-8,-18,-5,-2
4,0,-3,20,34,13,0,0
-2,3,18,-19,-46,-6,-3,-2
-2,6,9,-15,39,10,3,-4
2,10,25,32,-3,-15,0,1
-8,-49,-61,0,17,-3,-6,-5
2,-2,4,-13,-15,0,-1,3
-5,1,0,-16,-18,7,1,-1
-2,-7,-14,-14,-14,-24,-3,-3
-1,-3,-2,9,3,4,-1,-3
-2,2,1,-12,1,4,2,-4
0,9,15,27,24,13,3,-2
2,-4,-15,-1,1,-21,-2,0
-2,4,11,-19,-21,-5,-6,0
-5,-2,8,-16,-11,1,-1,-5
-3,8,32,28,5,15,3,-4
2,-1,-15,-9,26,-15,0,5
-2,-2,-10,-19,-37,-2,-1,-3
-2,1,3,40,42,5,0,-2
-3,7,14,2,-17,9,4,-1
1,1,-5,-17,-16,-21,-5,-3
-4,-9,-12,-24,-15,-7,-7,-1
0,0,11,15,-10,4,-1,-1
-2,12,21,10,27,9,5,3
2,-8,-25,-13,-6,-20,-6,-1
1,-13,-42,1,-4,-1,-7,-3
-3,6,22,-6,-2,6,3,0
-8,-13,3,-5,-9,5,0,-2
1,-4,-11,-3,-5,-19,-3,0
0,-4,-4,-4,-1,2,-2,2
-1,-1,-1,-8,7,5,1,-3
-4,5,10,-4,-13,11,1,-3
3,4,10,25,29,-19,-4,-1
0,-11,-27,-26,-13,1,-3,1
0,7,28,5,-17,3,0,-3
-6,-18,-54,-1,15,6,-1,-2
0,0,1,-35,-60,-24,-7,-1
-3,10,8,30,44,7,0,-2
3,3,21,18,48,11,4,2
-4,2,-13,16,-14,5,3,0
0,-3,-7,-23,-18,-22,-8,-4
0,-3,-3,-24,-19,-2,-5,-5
-1,-7,-7,7,-9,1,-1,-6
-1,7,13,16,24,5,2,-1
-2,-4,-12,-2,-8,-18,-3,1
-1,0,-5,-3,-3,-1,-6,-2
1,-2,1,-6,6,6,0,0
-3,13,13,-14,-14,6,1,-3
-1,-9,-19,10,1,-23,-9,-1
-2,-4,15,-9,-8,0,-1,-1
0,0,11,-6,3,9,-2,0
0,15,27,25,13,9,4,-1
4,-2,-6,-11,-6,-21,-6,-1
-1,5,35,-20,-25,2,-1,-4
0,-11,-33,-2,24,4,-1,-4
-1,-3,-14,6,-12,6,4,1
4,0,-3,10,17,-20,-6,0
-3,-7,-3,-24,-21,1,1,0
-3,5,13,-8,-15,-1,-10,-5
-3,7,16,32,45,9,8,1
2,-4,-6,-33,-44,-28,-17,-1
0,-10,-24,14,50,10,6,0
1,-1,-2,-5,-15,-2,-2,0
4,6,3,-1,-9,5,4,1
-7,-3,-11,-12,-2,-18,-5,-7
-1,-1,-3,-25,-16,-3,0,-2
3,10,11,16,-5,5,-1,1
2,13,-2,2,26,3,-3,-6
10,3,-6,19,-1,-12,7,7
9,-7,4,11,18,1,-7,2
1,0,20,-6,-20,6,1,2
-8,5,5,11,6,0,3,2
-1,-9,-21,-22,-8,-26,-9,-4
1,0,-1,-13,-14,2,7,-1
-1,-1,5,4,15,8,-10,-5
5,17,30,18,-1,3,6,5
-3,-13,-25,-33,-29,-26,-7,-1
3,8,9,4,9,1,0,-6
8,7,11,16,26,8,4,4
-15,-1,7,21,14,0,1,-5
3,-7,-26,-17,-25,-28,-23,-13
6,-4,6,-10,-7,3,2,2
8,3,-3,-38,-22,-1,1,1
-13,8,18,41,1,6,11,-1
0,-8,-17,37,51,-19,-4,1
-13,-10,-20,-31,-33,-1,-2,-3
-3,-11,-16,-4,4,1,2,-3
-1,12,32,-4,-12,0,3,-2
6,-3,-9,-28,-39,-23,-1,6
-4,-7,5,14,51,12,0,0
6,9,0,-8,-21,0,0,0
-18,2,10,3,-9,4,2,-3
4,-9,-14,-8,-3,-26,-10,-2
6,2,-8,-6,-23,0,2,1
-2,9,23,21,36,10,2,-6
-10,13,23,1,-34,2,4,1
-2,-5,-13,29,53,-21,-7,0
3,-3,16,-15,-29,3,-5,2
-5,-10,-44,-40,-34,-3,-3,-1
-19,-10,5,15,24,-2,-1,-7
5,-2,-3,4,2,-14,-2,2
6,-1,10,-12,-18,2,-4,-1
-11,-4,-12,-7,6,4,-3,0
-6,7,9,5,-9,0,0,-1
2,-11,-21,-2,-4,-19,-6,1
-1,-6,-1,-42,-9,2,-2,-6
4,5,-6,43,0,6,0,2
-20,-6,2,16,45,9,4,-3
6,0,-14,-14,-23,-19,-3,5
-35,-18,-11,-2,9,-2,-10,-6
41,8,5,-15,-6,7,3,10
-35,-9,-3,10,-5,-2,2,-11
-28,-5,2,-19,-14,-21,-13,-6
6,-3,-30,-16,-7,5,2,6
12,-12,1,23,16,7,2,7
-1,1,0,-15,-25,-4,7,-2
12,-3,-10,3,34,-6,-19,4
-9,2,12,-5,0,7,4,-3
5,6,2,8,-25,1,9,6
-16,-9,-7,6,10,-8,-14,-14
-11,-14,-15,-1,15,-15,-9,-4
1,-2,-2,-33,-16,-2,0,-5
-21,-4,-1,11,-2,8,3,-4
10,5,6,9,9,0,14,7
-18,-14,-22,-20,-19,-24,-31,-2
-2,0,-9,-2,-1,5,-3,-4
5,10,33,-12,-10,6,3,-1
9,1,-16,6,2,-1,7,2
0,-4,12,13,26,-11,-1,7
2,-5,-12,10,-5,1,0,-1
7,11,21,8,1,12,-1,-3
-13,3,7,9,18,1,9,0
0,-12,-17,-25,-22,-21,-13,1
15,-9,-41,-20,-10,5,0,1
18,3,29,49,42,9,6,4
5,22,16,-15,-22,-9,5,5
-6,-28,-26,-3,-9,-14,-20,-13
2,-11,-36,-11,7,3,0,5
-1,3,9,-5,-9,10,11,4
10,8,9,-3,-6,-5,-13,0
20,3,-4,-9,-1,-8,3,11
-19,-3,4,4,0,2,12,1
6,1,-6,-5,-5,10,-8,-2
6,-2,1,-7,2,-7,-28,-16
-31,-4,-4,30,13,-12,3,0
-41,-9,2,-16,-1,1,4,-3
16,-1,13,12,6,6,5,2
1,-3,-12,-19,-16,-5,0,-2
13,-5,9,-4,-11,-10,-6,5
-10,-17,-13,6,16,14,7,6
-7,4,13,5,13,10,2,-7
-4,26,20,-2,-9,-8,-2,-2
11,-13,-1,-7,-10,-10,-4,6
12,7,-13,-8,0,3,1,-14
-7,11,24,32,23,16,10,17
-7,7,22,12,21,1,4,1
-17,-22,-21,-25,-22,-11,-18,0
37,7,2,7,-6,8,-1,14
44,8,-3,-12,-8,9,16,13
-70,-7,1,-1,4,2,26,-1
-9,-6,-7,-1,0,-9,-40,-20
7,-5,-20,2,1,3,-6,0
8,-3,-5,0,-7,9,33,7
16,1,1,0,-14,-5,13,15
-42,-15,3,-7,4,-12,-45,-15
33,-15,-54,-6,0,1,-10,1
-5,4,22,12,-1,16,18,1
-61,-7,-7,1,-3,-4,4,-6
16,-9,-18,-20,-13,-14,-6,-3
10,-32,2,10,3,11,44,12
4,12,35,-3,1,-9,-71,-26
-24,-31,-62,-4,-7,0,14,14
22,17,22,3,-7,-12,-3,-2
11,-1,-6,12,27,12,9,-2
-6,-16,-11,-36,-32,-5,26,-3
1,2,2,8,-16,-8,-31,9
1,-3,-10,23,37,-8,-36,-27
15,1,8,5,6,12,14,13
7,-6,-4,-26,-30,1,20,5
50,4,4,-12,-6,-6,-9,-13
-11,-11,-16,-19,5,-6,-1,4
18,-3,0,6,-1,2,-10,3
-52,7,10,-16,-12,7,39,5
0,-9,-17,4,-3,-11,-96,-30
45,4,-1,-17,-7,-2,46,35
-28,-6,12,8,0,7,16,-17
-9,-18,-37,-12,-13,-4,-22,-2
-21,-1,-15,-28,-14,-6,6,0
-11,-8,8,41,27,1,-8,-11
22,6,24,-4,-19,-5,-12,0
44,12,-17,19,16,16,17,16
-60,6,27,-13,9,-6,-19,-1
-17,-1,-15,1,-3,-3,-2,-3
0,0,8,-21,-18,-5,2,-12
-12,-17,-17,9,1,9,13,-10
-5,13,1,3,2,-10,-10,10
10,-11,-14,-22,-31,0,16,8
12,-8,0,28,36,0,-41,-26
8,11,5,5,0,2,15,9
-1,-5,-6,-11,-21,-6,8,18
-6,-13,-27,-18,-13,-13,-17,-35
2,5,-4,5,17,4,-6,2
0,14,41,12,-10,-3,10,-1
7,0,-28,-4,2,-10,4,14
-26,-7,3,-3,11,0,-11,-20
9,-10,-26,-12,-14,-4,-5,24
9,21,62,9,-3,4,-3,-30
-26,-17,-22,-4,7,1,4,2
46,16,17,4,-6,2,0,7
-96,-21,-12,20,28,11,32,-5
32,-20,-42,-24,-36,-11,-77,2
83,20,18,19,10,-1,11,29
62,-1,-17,-30,8,2,12,35
-51,-10,-11,-6,-11,4,21,-17
83,30,14,-1,15,11,40,8
-128,-5,38,13,-10,4,113,7
25,-13,-71,-45,-15,-36,-81,-33
-10,6,-5,12,15,4,25,15
-46,-17,-19,-8,-13,-3,5,-20
48,6,4,-3,-12,-4,1,21
-18,-14,-4,1,-1,2,28,9
13,-8,-19,-16,-10,5,-6,-5
12,1,2,-3,-5,-7,-17,-9
-7,0,-5,25,3,-5,8,9
-3,-10,-13,-8,15,2,11,12
34,13,27,-3,1,4,15,-14
-48,12,37,6,-14,0,-2,-11
1,-6,5,23,15,0,3,2
17,1,-1,-13,0,3,-4,-8
-4,-1,16,-29,-7,-1,-43,-7
-14,5,-24,19,-1,-4,-9,9
45,9,23,0,24,3,1,6
-15,-13,-22,-5,-5,0,21,3
-27,4,10,-10,-10,-1,-27,-13
28,12,19,1,-11,3,22,4
-94,-34,-23,-2,5,-10,-52,-40
12,-17,-23,-29,-15,-2,-5,-4
-13,-4,4,11,8,6,6,0
24,9,21,8,7,0,10,11
-3,-6,-8,4,-6,-6,-1,2
6,-4,-12,-8,14,9,5,15
-11,-5,6,-3,-12,-3,12,7
3,10,11,-27,-16,1,-16,-11
-25,-4,-4,19,-10,-16,13,4
44,1,-9,7,30,10,-9,9
-74,-10,3,2,9,-4,-1,-17
28,13,7,-35,-43,-10,-34,-15
-18,-14,-15,4,-6,-6,1,9
-8,-1,0,2,19,10,4,3
34,9,5,-5,-4,6,10,0
-60,-11,1,-3,-4,1,1,4
-8,2,3,-15,-8,-13,-10,-4
5,-5,-3,1,-3,13,5,-6
11,4,15,15,22,4,50,7
-98,-11,6,-18,-27,-6,-32,-38
-22,4,3,21,17,-10,12,5
18,-2,-8,18,8,2,10,4
11,2,2,-14,-14,1,2,3
5,3,10,-7,-17,-6,4,-2
5,4,1,-32,-13,-6,-1,8
-6,-17,-15,37,-13,3,-2,-12
2,-1,8,35,41,3,0,-6
-19,10,24,4,21,10,8,1
6,2,-12,-36,-20,-9,0,-1
7,-4,-2,13,-21,-1,-1,2
1,1,10,-26,-18,2,-2,-4
-5,10,19,29,26,9,3,-3
4,7,4,2,6,-3,0,1
-1,-9,-12,-12,-4,2,-2,-7
-1,0,7,5,-5,0,-3,-5
0,5,8,3,-4,-1,4,-3
1,0,-5,-13,-4,-9,-7,1
-3,-10,-9,-14,-34,3,-4,-1
1,-3,-7,18,27,-6,3,1
1,7,19,42,68,18,1,2
-1,-2,5,-36,-54,-21,3,8
-1,-17,-35,13,2,0,-9,-2
-3,-2,21,-22,4,1,-1,-6
-6,4,-14,6,-24,-7,5,5
1,-5,-2,-8,1,-8,-6,3
5,-2,-7,3,14,6,0,1
-4,2,19,-1,-6,1,0,-2
-4,5,14,-12,-36,-3,-2,-8
1,2,-8,11,30,-5,-1,-1
-2,-15,-18,8,-8,2,-3,-2
-2,-4,-18,-3,16,0,1,0
-4,14,32,-14,-37,0,2,-5
-7,-9,5,2,23,-3,-7,-3
4,-8,-39,-9,-9,4,-1,1
1,-2,5,-7,20,1,-6,1
-1,19,20,22,3,7,6,-1
-5,-31,-11,-24,-22,-20,-7,4
-5,-17,-15,-8,-10,-6,-5,1
2,7,17,1,-6,-3,-5,-4
-3,-4,4,2,2,9,5,-2
-2,6,18,-10,6,-7,-1,0
2,-10,-29,-6,-16,0,-3,-1
2,4,3,9,14,2,-4,6
-5,7,27,20,1,9,1,-19
1,-3,-8,16,33,1,3,6
-2,-25,-44,-21,-15,-4,-5,-5
0,8,6,-12,-13,-9,-6,-4
-8,-4,10,-23,-35,4,2,-6
-1,-7,-45,33,56,-3,-2,7
4,7,31,6,-6,5,-1,-3
-1,7,0,-12,-12,-1,1,11
-9,0,23,-1,12,9,1,-7
5,7,9,2,-12,-11,-5,-4
-3,-8,-17,-20,-11,-6,-6,-3
3,2,16,14,-16,2,2,17
-7,4,13,-6,-2,4,-1,-2
-3,-7,-55,10,8,-1,1,1
6,10,23,28,40,1,1,-1
-4,-21,-35,-9,-38,0,-4,1
0,7,26,7,38,7,4,0
4,-3,-38,-25,-62,-17,-8,-3
3,15,17,-3,43,-3,-5,5
-9,-45,-94,10,-2,5,1,-4
1,25,92,12,-2,7,3,-2
-7,-22,-4,-19,-24,-18,-9,-4
3,3,-14,-9,-1,-4,-4,10
4,1,-13,14,6,6,-1,-1
-5,1,11,2,15,14,3,-1
-1,4,-13,-8,-16,-17,-7,6
0,-2,19,20,11,2,-3,-4
5,-13,-43,-22,-7,2,-5,12
-3,28,85,-5,-14,9,4,-9
-4,-9,-10,9,8,-15,0,2
10,0,-11,-23,-19,-4,-9,-2
1,15,25,17,29,3,-1,-4
-5,-2,3,-5,-25,5,5,0
3,-3,-10,-24,-2,-14,-2,3
0,7,11,21,29,6,-2,1
6,6,12,27,0,-3,0,0
-3,2,17,-17,-12,5,0,-5
3,-7,-42,-19,-25,-22,-5,-3
2,7,6,-1,17,3,-2,0
1,6,28,5,-15,-2,-1,-4
-1,21,30,23,28,13,2,8
-6,-32,-44,-20,-9,-13,-8,-15
-8,-28,-5,-1,0,-1,-1,-3
-8,-7,-11,-21,-19,-2,-4,-8
1,23,35,21,-10,7,9,8
-3,-21,-24,-21,10,-16,-8,-3
2,5,25,13,35,8,0,-3
-4,-18,-49,8,10,3,1,-1
-4,-4,-2,-31,-31,4,1,2
-3,-1,8,-5,-24,-19,-5,-15
-2,-3,-17,2,23,0,-1,5
3,3,21,-17,-24,-2,3,7
0,14,33,31,11,10,2,-2
2,-2,-10,-2,9,-16,-5,4
-1,3,10,10,1,-1,0,1
0,-6,-21,-38,-22,-1,1,4
-5,7,41,31,13,7,-1,-2
-1,-11,-32,-17,0,-16,-2,1
2,2,2,-13,-26,-4,1,-2
4,19,40,-23,6,6,4,0
-5,-15,-29,47,-4,8,5,-1
-4,-2,5,-10,43,-15,-5,2
-2,-6,-2,2,-18,-2,-5,-1
1,-4,-3,-16,-16,-1,-2,-1
0,17,28,24,15,8,5,0
3,-3,-11,-2,-16,-23,-5,-3
0,-6,28,-8,2,-2,-6,-3
-1,8,26,-7,-5,4,2,-1
1,1,-23,-4,-6,4,-1,0
2,5,16,7,-3,-18,-7,7
7,11,20,1,3,1,-1,0
-4,-19,-57,-29,-17,-1,1,-2
-2,13,29,43,26,8,2,0
2,-2,-2,-23,-13,-23,-3,-1
-1,4,23,5,-30,8,-2,-4
-1,0,1,37,73,13,6,3
-3,8,4,-4,-21,3,3,-3
0,-5,-13,-34,-43,-25,-7,1
-2,-11,-4,22,43,1,-5,-2
0,4,32,-12,-5,5,4,-1
1,14,29,-5,-15,4,2,1
-2,-7,-21,-2,-11,-25,-8,-3
0,-2,8,6,20,6,0,-1
1,9,13,-2,-15,-4,-2,0
-4,8,18,0,-15,3,2,-5
3,3,-3,10,29,-16,-5,-3
-4,-17,-54,-20,-16,0,-2,-1
-4,6,6,13,14,3,-3,-2
-3,7,13,-26,-40,-7,-4,-3
-2,-14,-29,-31,-25,-13,-6,-1
2,8,40,82,98,9,6,2
0,-4,-15,-10,-33,-1,2,1
-7,-7,-14,-17,5,0,-1,-5
0,12,19,-4,-23,-23,-3,0
-4,-16,-55,-35,-18,-4,-4,1
-5,-7,-15,0,-19,1,0,-3
0,7,2,14,26,13,4,-1
4,7,28,26,5,-17,-4,3
-3,-25,-54,-16,7,2,-4,-4
0,8,27,-10,-14,2,0,1
-4,3,1,-14,-11,0,3,-1
2,7,31,6,-6,-24,-5,1
0,-8,-34,-8,2,-1,-4,0
2,5,15,1,-9,9,0,-3
-4,-17,-14,9,4,-1,1,-4
-3,-15,-59,-16,10,-14,-1,0
-2,6,30,31,37,12,0,1
-1,-3,-12,-17,-16,-3,1,-4
-1,8,33,-5,-18,-3,6,-5
1,-8,-28,7,10,-20,-6,0
0,-4,-3,-14,-8,-1,-4,-1
0,1,3,-21,-19,6,-1,-2
-3,16,40,20,19,8,2,1
0,-9,-38,23,-6,-21,-3,0
-7,-23,-31,-3,29,4,-1,-5
0,3,9,-16,-22,1,1,-1
-4,11,23,-24,-56,-6,-1,-4
4,-4,7,-4,62,-9,-3,3
2,-6,-30,38,5,6,1,1
0,1,-7,2,-21,-3,1,1
-3,5,22,-25,-3,2,1,-2
0,-7,-22,25,12,-9,0,1
1,8,30,5,14,3,0,2
-2,-8,-16,-45,-39,-5,-3,-3
2,1,-2,13,15,3,1,-1
0,-13,-16,28,29,-10,-3,1
-3,-3,-10,-33,-40,-2,-3,-4
-1,-16,-54,-5,43,8,3,-5
-2,7,16,23,-17,2,2,2
0,-5,-9,-24,-5,-20,-7,0
-1,-5,-9,5,-10,3,0,-5
-1,3,15,6,6,8,2,2
-5,1,-16,-1,2,1,-2,-2
0,-6,-8,-31,-22,-20,-3,-2
-2,-3,-1,19,18,-1,-2,0
-2,4,11,-3,1,7,3,0
-8,-17,-15,-1,6,1,0,-2
4,-3,10,21,36,-21,-5,-2
-2,-2,-3,-34,-35,-6,-3,1
-1,10,9,-23,-33,6,-1,-1
-3,3,12,39,50,13,5,0
1,2,2,1,-17,-22,-9,0
-2,-14,-19,-38,-31,-2,-4,-4
-1,5,1,27,22,5,3,-1
2,27,54,12,19,-3,2,1
-5,-17,-50,-25,-43,-22,-8,-1
0,7,22,10,4,7,-1,-1
0,0,5,19,43,10,6,1
2,9,5,4,-8,2,1,2
-3,-15,2,-25,-20,-22,-5,0
-3,-1,8,-6,-7,1,-2,-3
-5,-20,-77,-19,-23,1,-1,-3
-3,7,29,18,25,8,6,1
5,-1,-8,-1,7,-16,-3,1
-1,-6,-6,9,6,2,-3,1
-3,2,10,3,7,9,1,-1
-4,1,8,-31,-47,-10,-4,-3
-5,-14,-24,-25,12,-17,-5,-1
2,0,8,65,33,7,1,0
0,-4,-6,-9,-12,9,1,0
-6,6,11,-22,-12,-4,-4,-3
1,-8,-18,-8,-2,-19,-6,2
1,3,11,-10,-9,6,1,0
-1,0,-1,-5,0,8,1,0
-1,9,4,5,-25,-3,2,0
-1,-10,-8,5,32,-8,-4,2
-2,-3,-4,-5,-1,8,2,2
-2,5,13,-15,-21,1,1,-2
-2,6,13,-4,6,-4,0,0
3,-4,-8,42,31,-12,-1,0
2,-1,1,-2,-3,2,0,0
0,2,8,-9,-9,1,-2,-4
-4,4,-2,-26,-22,-5,-2,-3
3,-3,-8,0,-9,-15,-2,2
-2,-7,-3,-3,10,3,-3,-2
-3,-9,-24,-3,-3,4,1,1
2,10,18,-2,1,3,2,-2
3,-6,-9,5,3,-11,-4,4
-3,-4,-2,-8,-28,-2,-4,-3
-1,2,-6,-16,11,6,4,0
-2,8,30,30,9,7,5,-1
3,-2,-3,8,13,-13,-3,2
0,-17,-31,-4,16,-1,-3,-3
-1,17,46,6,-29,4,2,-1
-3,-4,-41,-7,3,-2,2,-1
0,0,2,-8,3,-11,-6,1
-4,2,3,-12,-7,0,-2,-3
1,3,14,22,1,13,3,0
-1,5,7,-3,6,-2,0,0
1,-8,-13,-21,-15,-19,-5,3
1,2,3,13,7,6,0,0
-4,-6,-8,-2,-4,9,1,-4
0,-3,0,-16,-22,-5,0,-1
3,-3,-7,1,35,-5,-1,-1
0,-1,2,10,-27,-2,0,-2
-3,5,12,9,28,9,1,-4
-1,7,1,34,4,0,0,0
-5,-42,-90,-56,-38,-22,-9,-4
0,8,18,11,7,5,0,-1
1,0,-7,22,15,14,2,1
-3,-1,-7,-15,-15,-7,-1,-3
-2,-9,-18,-18,-12,-11,-3,-3
0,0,-4,-2,0,1,-1,-3
-3,-3,1,6,7,10,1,0
0,13,22,2,-5,-5,-1,-1
0,-11,-31,-34,-37,-17,-6,0
1,3,-17,31,39,15,-1,1
-5,-9,-30,9,10,9,5,2
1,9,14,5,-5,-3,2,-1
1,-8,-17,-21,5,-11,-6,3
1,0,13,12,-15,2,0,-4
-3,5,3,6,11,9,2,-3
-2,0,4,-11,-15,-4,-1,-2
4,-13,-28,-12,-7,-8,-5,2
3,-3,8,-3,7,2,1,-2
0,7,3,-19,-21,7,5,-3
1,5,11,5,-21,-4,-1,1
3,-4,-14,24,42,-2,1,2
1,5,26,0,3,8,0,0
-5,-3,-20,-10,-17,5,-4,-5
-3,-6,0,-20,-22,-8,-2,-4
1,-2,-4,0,1,-8,-5,-1
0,3,0,-3,28,7,-1,-1
1,3,9,3,-12,11,2,1
-1,4,6,-10,1,-3,2,0
3,-11,-34,14,6,-12,-3,0
1,0,12,-9,-9,0,-3,-2
-2,2,14,-5,-16,7,0,-4
-3,-3,-26,-14,7,-5,-1,2
0,-3,8,-8,-16,-7,-5,2
-1,-21,-52,18,27,2,-1,-2
-2,-2,-4,-3,-25,17,8,0
1,7,5,37,42,0,3,1
1,-7,-13,-18,-18,-8,-6,-4
-2,3,7,-8,-15,-3,-4,-3
-6,-6,-11,-38,-29,11,-1,-3
-3,-4,15,39,18,-8,2,-3
4,-3,-6,-14,10,-3,-3,1
-4,-14,-36,-5,-4,-3,-1,1
-1,7,19,-2,-4,12,4,-3
-1,2,11,-3,-36,-8,-2,-1
2,-6,-17,13,53,-1,-2,1
5,3,4,-1,-7,5,2,1
-5,-3,13,-21,-23,6,0,-4
-1,8,9,2,-11,-12,-4,-1
1,-1,-5,23,31,7,1,0
5,4,8,8,19,0,1,3
-5,1,11,-9,-21,11,2,-3
-5,0,3,18,0,-8,-1,-5
-1,-10,-44,-48,-36,-12,-6,2
3,3,5,20,26,7,0,0
0,3,11,18,-13,13,3,-1
-1,7,9,-4,-8,-12,-2,-2
0,-10,-21,0,13,-2,-1,-3
1,3,9,-6,4,2,2,0
-6,-3,-2,1,-21,9,3,-1
-6,1,1,-28,-22,-11,-1,-5
1,-4,-6,39,41,2,0,1
-3,-11,5,-25,-11,4,1,-3
2,7,5,-2,2,20,2,1
-1,4,11,28,-2,-10,1,-3
3,-4,-8,0,18,-8,-3,3
-2,-3,-13,-36,-39,-2,-3,-3
-3,0,20,5,-4,14,1,-4
3,11,13,27,35,-12,-3,1
3,0,-17,-29,-25,-2,-4,4
-1,4,16,0,-7,-3,-3,-4
-3,4,12,4,-22,15,3,-3
-2,2,-2,-3,13,-10,-4,-1
7,4,16,12,9,1,1,2
0,0,-3,2,7,5,1,1
-3,5,5,8,2,13,2,-2
-2,-1,-10,-28,-8,-12,-3,-1
2,-8,-16,2,-27,-12,-3,-1
-3,0,17,13,5,9,0,-4
-1,10,15,25,44,23,7,-3
2,4,-2,-3,18,-10,1,3
0,-5,-11,-17,-30,-5,-4,0
-4,-5,-8,-27,-22,-3,-4,-3
-2,3,24,11,8,14,0,-4
3,8,7,21,8,-5,0,4
3,-8,-11,-5,0,-4,-3,0
0,2,7,-9,-11,1,0,-1
-3,1,15,0,-10,9,-2,-5
0,-1,-5,-3,7,-8,0,-1
1,-4,3,1,19,7,-2,1
0,3,4,13,3,3,2,-2
-2,2,11,-19,-39,6,5,-1
-1,-3,-6,27,42,-9,-1,0
0,-1,4,-19,-11,-4,-2,1
-3,-3,-3,-4,-5,3,-2,-2
-3,2,13,4,-2,12,6,-2
-2,2,-3,-15,-34,-7,-1,-2
-1,-6,-6,11,40,1,0,1
1,1,-2,1,-4,2,-2,0
1,9,13,6,-18,14,1,0
-3,-1,-8,0,24,-11,-4,0
3,-2,-1,-9,-30,-5,-1,1
1,3,3,9,27,8,5,-4
2,8,21,6,-7,14,3,-3
-1,0,-3,-7,-3,-12,-5,-1
-1,-11,-11,-24,-17,-4,-4,-2
-2,0,-2,9,-8,3,-3,-3
-3,14,35,4,27,21,6,2
0,-9,-38,21,3,-10,-2,0
0,-7,-8,-39,-43,-8,-4,-1
-1,-1,-5,21,29,11,1,-4
0,6,18,14,38,16,2,-1
0,1,-7,-17,-40,-15,0,-2
4,-5,-4,-11,-9,-6,-3,-2
-2,-8,-3,-9,-1,8,1,-3
-3,5,11,26,3,17,0,-6
4,6,2,6,13,-15,-2,1
-3,-9,-12,-34,-29,-4,-4,0
2,-1,4,21,28,6,2,-1
-4,5,10,-10,12,24,4,0
2,6,16,36,24,-11,-3,-2
-4,-8,-3,-12,1,-3,-7,-3
-2,-1,10,-21,-29,1,-2,-1
-2,7,13,13,-10,12,4,-1
0,-1,-2,-17,1,-13,-4,0
2,-7,-8,12,4,-2,-5,-1
-1,-2,-1,-3,13,6,2,-3
-2,2,9,0,-17,11,4,-2
2,-2,-11,-8,3,-21,-4,1
0,-6,-5,-18,-26,-8,-2,1
6,6,12,24,31,10,5,3
1,8,10,-4,1,17,2,1
-8,0,-7,-19,-13,-21,-5,-9
3,6,16,20,0,4,-1,-2
-6,-4,-30,27,34,5,3,1
3,13,16,-5,-8,12,3,-2
2,1,-4,-16,-26,-22,-1,3
1,-7,-6,-19,-3,-3,1,1
-3,-1,0,22,-10,-3,-10,-6
-2,7,10,2,21,13,4,-5
5,10,-2,-1,-14,-15,-3,-5
3,-8,-12,-52,-49,-5,-2,0
-5,-19,-4,48,16,3,-1,-2
0,2,12,36,61,26,5,-2
-7,-10,-9,-8,-5,-14,-3,1
3,5,-5,-29,-42,-4,1,1
2,-4,-4,20,19,2,-2,1
-10,9,10,-20,-28,10,-7,-10
11,-1,-2,-4,0,-14,1,0
4,4,3,2,4,3,-2,4
6,9,3,3,-1,2,2,-3
-12,17,21,0,8,18,7,-2
3,-16,-14,10,-5,-20,-5,-2
-4,-10,-16,-27,-24,-4,-12,-8
21,4,7,25,34,3,4,7
-39,-1,-6,-25,-47,6,2,-10
-3,6,3,4,45,-9,0,4
21,-6,-5,-11,-10,-2,2,10
-4,0,1,35,4,10,13,2
-5,0,12,-8,1,16,-8,-5
-2,-7,-14,5,2,-17,-7,-5
-1,12,-3,-15,-12,-2,-2,-1
-4,-6,7,-7,-13,-1,6,-7
-4,17,13,-5,-5,15,0,1
18,2,-3,8,18,-10,0,9
-31,-9,-13,-11,2,2,-8,-10
17,8,24,28,42,8,8,5
26,14,15,-18,-29,7,3,5
1,1,-4,-17,-35,-20,-1,-1
-40,-23,-29,-15,37,3,-5,-18
9,6,-3,45,13,8,28,10
2,15,30,-4,-20,11,-18,2
16,6,-5,-13,-7,-16,-1,2
-5,-10,-9,9,9,10,5,0
-22,1,-7,-20,-3,8,5,-4
5,22,62,26,12,10,7,2
15,7,9,-17,-13,-19,-2,2
4,-7,-11,-12,-14,-3,-4,-2
-9,-2,2,-4,3,9,2,5
-23,-7,1,-8,-2,12,4,-26
22,2,-3,3,-20,-19,-7,4
-13,-4,-14,28,49,3,0,-2
5,-1,11,-9,-15,2,-10,-8
-3,-1,10,4,-7,4,2,-5
7,7,-9,-16,-10,-22,-15,-2
11,-8,-7,-3,19,5,6,5
7,-5,-6,6,-8,0,4,3
11,16,15,-19,-11,12,-2,0
-9,1,5,18,15,-11,5,4
-7,-2,-4,1,-4,1,-5,-3
9,-1,3,11,36,13,5,6
27,22,26,-17,-25,1,9,1
-57,-10,-9,-12,-22,-28,-18,-5
43,4,-10,-20,-10,9,15,9
-4,-1,10,19,39,11,-11,-8
28,18,19,24,0,18,36,25
9,-12,-24,-16,-10,-26,-33,-22
-15,-3,-17,-11,-6,3,5,-9
-17,-15,0,-8,-13,-2,13,-2
-3,8,26,11,14,11,-10,-6
1,-8,-9,-4,-2,-20,-3,9
14,-4,-19,-9,-4,4,5,-1
6,6,6,-13,-5,7,15,6
-37,3,18,27,-1,10,-11,4
6,4,-23,10,15,-10,17,12
6,-15,-20,-5,-8,-9,-50,-33
6,6,11,-14,-23,-4,-11,-10
-27,5,13,32,25,10,12,-1
11,-14,-21,-16,-8,-22,-34,-1
-4,-1,10,-17,-24,-20,-8,-4
33,-8,-35,-16,8,5,-14,-10
-11,10,7,-1,-7,13,25,4
8,2,-7,0,-15,-18,-19,1
-10,1,-1,2,17,11,3,-6
-7,-10,-13,-20,-11,-7,0,4
20,18,22,-7,-21,4,32,11
-22,-24,-16,0,-37,-15,-2,5
-5,-6,6,39,52,-8,-71,-35
-16,-7,-5,-12,2,1,-31,-1
24,2,-22,-29,-8,-3,6,2
24,-2,1,-15,-19,-12,5,8
-43,-20,-6,-28,-4,-3,-6,-2
25,-17,-27,13,-8,-6,25,3
-2,15,28,18,0,-8,-73,-37
9,8,-1,7,9,-4,23,15
6,2,10,-6,-10,-7,6,-17
17,-8,-20,-18,-1,7,9,11
2,21,37,8,0,0,-30,-10
-58,-22,-26,41,20,0,-9,-14
-50,-1,-4,1,-7,-12,-3,-8
37,22,25,0,8,-5,-27,0
-72,-30,-49,-16,-12,5,11,0
12,2,-11,-16,-7,-1,16,8
36,10,39,53,51,-1,-45,-1
18,1,-28,-37,-17,1,9,7
-54,2,32,16,-26,-10,-11,-32
43,0,-24,-12,9,-1,12,41
-21,-14,-20,-43,-28,-3,1,-49
35,12,25,7,-8,5,22,14
-43,-7,3,16,23,-2,30,6
18,6,9,7,-4,3,-28,-18
13,-15,-17,1,0,-1,3,15
-10,-4,4,11,2,9,11,-1
-22,21,38,-11,-7,1,34,10
31,-2,-22,-19,-18,0,-36,-13
-46,-5,6,12,2,-12,-38,-7
40,16,3,-3,23,12,11,14
19,7,14,24,-24,-5,33,5
23,6,-6,-31,-20,-5,-44,-12
-33,-36,-26,-3,5,-3,10,5
-14,23,33,0,-12,-1,22,-33
4,-3,10,5,15,-3,-12,-8
22,11,-6,-25,-25,1,-14,5
40,8,-15,18,17,-1,13,25
-54,-25,3,-9,3,4,36,-25
-5,14,22,-18,-30,7,70,40
27,0,-29,-23,17,15,-40,-13
-18,-2,-2,30,10,-4,-11,4
26,3,2,-11,-14,-12,30,-8
-72,4,35,17,-14,4,50,18
-6,-11,-4,-3,19,14,-17,-4
42,10,8,9,-3,6,78,27
46,3,-8,9,7,-6,-31,4
-56,4,22,-1,-18,-13,15,-10
17,-6,-14,-17,-6,14,5,10
47,2,-8,7,2,-3,-10,1
-38,-4,3,-21,19,-5,0,-8
-11,-4,9,25,-17,-9,12,3
22,4,-11,-8,-8,15,-19,-4
-32,-12,-10,-13,35,0,-7,-12
9,12,11,23,-3,-1,3,11
8,12,25,32,30,-5,19,3
19,-9,-29,-44,-43,11,-25,-4
6,-10,-6,-27,-35,-3,10,2
10,-4,-9,15,45,1,2,-3
14,10,15,8,-26,-6,8,0
-24,-20,-19,-21,-2,20,6,15
57,4,6,-24,-4,-4,-6,-8
-104,-17,3,27,11,-1,12,3
9,6,10,-8,-14,-4,4,-13
9,-6,-15,-20,-17,2,-19,3
-5,-9,-4,-23,-15,-2,-4,-5
6,-3,3,15,-20,-12,0,-3
11,7,8,14,64,1,3,-1
0,7,3,-1,1,21,0,3
2,0,0,28,18,-5,2,3
-2,2,-3,-25,-33,-13,-6,0
0,3,1,-22,-2,-4,4,-1
-2,-10,-19,13,-10,7,-9,2
-5,-8,-4,-39,11,-7,-5,-5
-2,2,7,26,-44,-6,-1,-4
0,3,6,32,66,8,8,1
10,-3,-17,-12,-2,20,10,6
2,2,6,18,5,-6,-34,-6
5,1,2,-18,-25,-6,-2,-2
-3,-1,8,0,-12,-6,0,-1
-11,-9,-17,-11,-1,5,2,3
-2,-3,0,2,4,4,11,3
1,0,2,-5,-3,0,7,4
1,3,7,14,-8,-4,1,0
2,-7,-15,1,18,-6,-5,-3
-3,5,6,-12,-6,0,0,-2
-3,-1,10,1,-9,-1,1,-1
-2,-1,-8,-6,-7,-15,-1,-2
-3,-8,-16,-7,4,4,-4,-4
1,-1,0,-11,-15,1,2,2
-1,6,8,56,20,4,-2,-4
0,6,10,-1,40,2,2,3
0,-10,-14,-56,-36,-9,-6,-6
1,-3,-2,28,-10,-1,0,4
-4,0,4,2,22,5,-3,-5
-3,4,1,-11,-15,-1,-2,-4
2,-14,-23,-23,-14,-8,-3,3
-1,1,7,5,2,0,-1,0
-2,7,9,-24,-12,1,-2,-1
-3,1,2,24,5,1,1,-4
0,-5,-7,-7,-30,-8,-8,1
-1,0,-8,-5,27,2,-4,-4
1,9,13,9,-8,5,5,0
-3,-4,-4,5,8,0,6,0
5,-4,-5,37,69,2,0,3
-4,2,8,-5,-30,-3,-3,-3
-8,-21,-37,-39,-36,-8,-3,-5
-1,12,18,-8,-20,-5,0,-2
1,-9,-8,-1,8,-5,-3,2
-1,-4,0,-3,-2,3,-3,-4
-1,8,9,-9,-2,3,3,-3
-3,6,17,24,8,-1,3,-4
3,-12,-13,0,-12,-10,-8,-2
2,1,7,1,10,1,-4,5
2,8,12,3,-19,3,-1,-6
2,14,45,12,23,1,3,4
4,-10,-3,4,17,-4,-4,-1
5,22,51,-10,-23,0,-1,-1
-5,-12,-41,0,-4,-4,-1,-6
-11,12,48,7,-6,-6,-1,-6
7,-1,17,-32,-12,-11,-5,0
-7,-10,-21,32,26,8,1,-11
3,17,28,30,19,6,2,-2
-2,10,-8,-26,-29,-7,3,10
-1,-5,0,-52,-39,-12,-3,3
-1,-5,-17,53,72,5,0,-3
-3,0,4,-24,-36,-2,1,-5
1,12,31,-6,-5,-5,0,-1
2,-16,-68,7,18,-10,-4,3
-1,10,52,-8,-16,0,-3,-3
4,10,41,-6,3,5,1,0
-1,-1,-26,7,-10,-2,5,-2
0,-2,13,-4,0,-12,-3,18
-2,-7,-31,-26,-20,0,-3,-9
0,2,22,46,51,15,14,14
0,18,38,-14,-29,2,1,14
7,8,7,26,40,-3,-3,1
-1,0,18,2,13,6,-2,-3
5,17,36,0,-16,2,1,-1
-10,-8,-33,-17,-15,-4,0,-6
0,5,17,-2,-9,-11,-5,2
1,-4,-16,-8,-3,4,2,12
-2,0,1,-13,-25,4,-1,2
0,17,31,2,12,0,0,-2
4,-4,-4,9,13,-5,3,1
0,-3,-4,24,19,8,3,-1
0,4,6,8,23,8,1,-3
-4,5,28,5,-25,-7,1,-4
5,-3,-24,-3,0,-8,-4,2
0,-5,-29,-36,-37,-4,0,-1
-9,-14,16,1,15,9,-4,-13
4,2,-15,35,29,0,3,-1
0,-3,9,-30,-15,-12,-4,4
1,-2,3,-11,-19,2,0,-1
0,0,16,-10,-13,10,4,1
4,15,34,15,9,2,3,8
0,-9,-23,4,-12,-12,-4,1
2,8,29,49,43,7,1,-1
5,21,28,1,7,11,7,5
-7,-38,-65,-53,-53,-12,-2,-2
-3,-3,-11,21,30,-4,-1,0
2,9,30,3,5,8,0,3
-2,-2,-18,-8,-7,3,-1,-1
-2,-5,-14,-17,-14,-8,2,-2
2,1,-27,-4,3,-7,-6,1
-1,-6,-2,1,5,5,0,1
2,14,27,23,21,10,2,-2
-3,-1,-7,-18,-14,-5,-1,-2
3,3,29,13,-19,-8,-9,-2
-9,-34,-82,-10,-4,-5,-5,-4
1,9,35,29,50,21,7,-1
1,4,5,0,4,-2,2,3
1,-3,5,-1,-61,-17,-4,0
-1,4,29,7,62,13,2,-2
1,7,-10,11,-3,13,4,0
-3,-2,10,-16,-19,-11,-2,-4
-7,-21,-8,-32,-39,-16,-10,-3
-1,0,-2,-1,25,12,2,0
-2,4,2,13,-3,12,1,-2
-1,-6,-25,1,-12,-4,0,3
4,9,14,-24,-14,-7,-3,-1
-2,5,18,37,36,5,-1,-2
1,5,26,-15,-15,9,4,-1
0,5,5,14,1,-11,1,2
5,14,3,-6,16,-6,0,2
-2,-24,-26,18,-7,4,5,1
0,18,37,11,12,13,2,1
1,6,-3,-18,-18,-9,3,0
0,0,6,-8,1,-5,-8,2
-4,-5,-2,-7,-17,-1,-4,-4
-3,4,8,6,13,16,5,-2
-1,1,-1,-17,5,-5,5,-1
0,1,22,22,-17,-10,-3,-1
-4,-6,-32,1,17,-2,-3,-1
-3,-9,-2,4,-22,11,2,-3
-4,0,8,-2,13,-10,-1,-6
2,-5,-9,-7,1,-5,1,1
-2,-3,6,-10,-37,1,-5,-3
-3,3,8,11,33,15,4,0
-3,3,23,27,2,-7,2,2
9,6,-5,-12,12,-2,-2,2
-3,-1,9,-14,-15,3,-2,-7
-1,13,20,-24,-46,6,-1,-2
1,-2,-8,28,66,-1,1,0
2,-4,-11,3,-15,-3,1,2
-3,-2,2,-5,-29,-1,-3,-4
-1,9,31,12,35,13,1,-2
2,2,6,-22,-20,-6,-2,1
-1,-11,-36,0,-5,-7,-4,0
-2,3,16,28,41,7,0,-3
-2,5,10,-6,-33,7,3,-1
-1,10,12,-1,19,-7,3,0
1,-4,3,8,8,-1,-2,4
1,6,9,-5,-11,7,-2,-1
-4,-7,3,-14,-27,4,2,-3
-1,0,0,20,41,-3,-1,0
2,-5,6,16,7,1,-3,6
-4,-1,0,-19,-14,-2,-3,-4
-1,-4,12,-12,-53,5,3,-2
0,6,4,26,86,7,3,4
6,6,17,0,-5,-3,2,5
2,15,43,25,9,6,0,0
-4,3,10,-4,-17,6,0,-2
-2,1,2,-8,-5,-10,-1,-2
1,-10,-30,-29,-7,-15,-3,0
-1,-4,7,18,-17,3,0,-4
1,19,49,25,41,18,5,2
-3,-5,-44,-35,-37,-15,-3,-2
-3,-1,6,19,-1,-4,-7,0
1,3,5,0,25,6,0,-3
-2,-4,8,1,-13,12,3,0
-4,-4,-10,-27,-32,-14,-7,-3
1,-3,-13,11,30,0,0,1
-3,3,6,3,-23,-1,-2,-3
-2,7,16,10,-4,13,2,-1
2,2,4,16,46,2,4,0
2,-1,-13,0,-42,-9,-1,-3
1,10,29,9,48,4,-2,-1
-5,-8,-23,-13,-23,13,2,0
-1,-3,-9,-28,-26,-14,-1,2
-3,-4,-16,9,15,-2,-5,2
3,11,37,20,20,5,-1,2
0,8,26,-2,-6,13,2,-1
-3,-2,8,-1,-19,-16,-5,-1
3,-2,1,-25,4,-3,-3,0
-3,-11,-24,20,-17,-4,-1,-2
3,19,38,10,30,23,5,1
1,-2,-10,30,16,-8,-2,2
2,-8,-9,-30,-33,-14,-7,-1
-2,-3,-2,1,-16,-2,-2,-2
-3,5,5,-26,-4,6,4,-1
-1,10,34,38,12,-1,2,-1
2,-17,-38,-8,25,-3,-4,-1
-2,-2,2,2,-46,-3,-3,-2
-6,7,12,6,23,12,2,-3
0,4,9,-24,-14,-12,-2,0
-1,2,31,13,-1,-5,-5,1
-5,-12,-21,-2,22,6,3,-2
-3,8,10,-12,-39,6,2,-2
1,-3,2,1,24,-7,-1,-2
-3,0,15,21,9,-4,1,-1
-1,4,3,-18,-13,-8,-1,-2
4,14,21,-4,-20,14,5,1
-3,-11,-15,7,15,-15,-7,-2
-1,-8,-12,-40,-39,-5,-4,1
-1,8,17,34,60,16,4,3
0,6,12,26,1,12,7,0
-3,-5,-5,-11,-47,-24,-5,-4
2,-3,-8,-17,31,5,-5,3
0,-1,5,15,-43,-5,2,-1
-2,8,20,-4,27,13,1,-5
0,1,-16,1,-8,-17,-2,2
-1,-5,-2,-1,4,-4,1,-1
0,-8,-3,-19,-35,-5,-5,-4
-1,3,8,7,2,22,6,-1
-2,0,-8,43,48,-8,-2,2
0,3,17,-13,-17,-5,0,-1
-6,-20,-43,-15,-17,-6,0,-4
0,8,12,-17,-15,10,6,0
0,4,11,11,-5,-13,-2,1
-2,-23,-60,-3,1,1,-3,-1
1,7,7,4,10,8,0,-2
-2,8,20,-12,-23,12,5,-2
-2,-9,-34,2,12,-13,-7,-2
1,-5,6,-7,1,-5,-3,-1
-2,-16,-22,-4,-5,0,-1,0
-4,5,17,13,1,14,0,0
2,-2,-5,-12,17,-11,1,0
4,-3,-26,12,-3,-2,0,0
1,5,9,-14,-7,-2,-2,1
-3,4,15,-2,-27,11,-2,-1
0,4,8,3,40,-11,-2,-2
2,3,22,-3,-23,3,-1,3
-12,-38,-87,-1,12,1,0,-5
0,12,21,5,4,13,4,-2
1,2,-7,-4,-15,-14,-7,1
0,-8,-11,-15,-17,-5,-4,-4
-1,1,9,3,21,5,-3,-5
0,8,7,-8,-27,13,1,0
0,-1,3,3,14,-15,-1,-1
-1,-5,-24,-32,-12,-1,-2,0
-1,8,21,66,11,7,3,0
-2,7,9,-12,27,14,4,-2
-4,-4,-9,10,-32,-15,-2,-1
-1,-5,-9,-2,29,1,-1,0
-3,-6,-6,-30,-42,-4,-2,-4
0,8,6,9,-1,11,1,-4
-4,-13,-4,-12,-5,-18,-4,-3
1,-10,-17,-14,-30,-4,-2,-4
0,3,-1,-25,13,6,-3,-5
-4,17,36,42,13,15,5,1
4,-1,-18,5,24,-11,-2,4
-2,-12,-9,-17,-21,-1,-4,-1
-4,-3,-30,14,9,1,-1,-3
-3,9,15,-1,-6,14,6,-1
-3,-1,4,-37,-24,-25,-9,-6
2,0,-12,-1,-4,1,-4,1
-4,3,-1,3,11,1,1,-2
-2,5,5,-2,-18,10,-1,-4
0,-5,-10,-26,-34,-20,-2,-2
1,1,-1,26,57,9,1,2
4,3,17,-9,-14,0,3,-1
-5,5,11,7,-7,12,-1,-4
-2,-5,-10,-9,-11,-14,-6,-2
2,-5,-6,-13,-9,0,-3,0
0,4,14,24,22,3,2,0
-2,7,13,19,14,15,5,0
1,-1,-3,-17,-10,-18,-6,1
0,3,12,-10,-15,-3,-3,1
-3,-4,24,-22,-14,-2,-5,-5
-11,-18,-52,2,-16,10,1,-2
2,3,8,-19,-5,-18,-3,1
1,1,8,58,69,12,2,3
-1,1,1,-3,-20,1,-4,-4
-2,3,5,-25,6,14,4,-1
-2,-2,-9,11,-11,-20,-5,0
1,-6,-6,-10,-9,1,1,-1
-1,2,-3,-10,-5,1,3,0
-4,10,18,-4,-5,5,1,-6
0,-6,-12,-20,-12,-19,-6,0
1,-5,-6,3,0,1,-3,-1
1,-3,2,1,4,5,5,-1
3,9,23,36,40,14,3,-1
0,-10,-27,-21,-16,-18,-3,1
1,-7,-2,-6,-11,0,-5,-1
-3,6,10,-21,-7,-1,-1,-1
-5,9,40,19,-25,6,0,-7
5,-1,-10,5,37,-20,-3,3
4,6,1,-13,-8,2,-1,-1
-3,-17,-20,22,-19,2,0,-3
-2,12,22,12,40,14,4,-3
1,0,-36,-16,-42,-22,-3,3
0,-8,-13,-28,-6,5,-1,-1
-3,2,18,48,50,8,-1,-4
-4,11,23,3,-4,9,5,-2
0,-11,-29,-14,-49,-28,-8,-1
1,-3,-2,-16,19,1,-1,-2
-1,-7,-18,-9,-3,6,3,-4
-2,7,15,15,-1,8,0,-1
2,-4,-22,-25,-14,-22,-6,-1
2,-6,3,-10,-19,-7,-3,-2
3,2,1,34,24,15,3,-1
2,9,16,19,35,16,6,2
1,-3,-5,-30,-1,-20,-4,4
-4,-8,-16,4,-38,-10,-5,-3
-1,-3,0,-46,-34,-1,-4,-2
-5,9,21,27,28,13,3,-1
0,-4,-4,43,45,-9,-3,2
1,-4,-7,-22,-27,-3,-3,0
-3,2,5,-28,-27,1,0,-2
-1,6,3,36,11,5,0,-6
1,-6,-10,-10,19,-18,-4,2
-2,-7,-9,-16,-15,-1,-3,-2
-6,-5,-7,-15,-18,-3,-3,-3
-3,1,1,7,11,8,2,2
0,-2,-2,2,-5,-20,-7,2
2,-5,5,-6,0,4,-5,-3
1,7,13,-13,-14,0,-1,-2
-5,4,12,25,17,7,6,1
3,-1,-4,-31,-28,-21,-3,4
0,5,10,22,45,3,-1,-2
1,-3,-10,-6,-17,2,2,0
1,7,13,-10,-22,1,-3,-4
-6,-16,-16,-16,-5,-20,-5,0
4,-4,5,35,30,9,2,5
-1,1,1,-8,12,0,-1,-3
-3,2,3,0,-66,-1,-3,-4
3,-7,-10,7,56,-3,0,3
0,5,8,-13,-23,-5,-2,-3
-2,-9,-20,1,-4,1,0,-5
1,8,-5,-7,0,4,1,1
-4,-16,-11,-13,-14,-22,-8,-1
-5,-17,-31,-12,-9,3,-5,-4
1,4,20,-16,-12,0,-1,0
-4,10,18,5,-34,5,0,-3
-2,-17,-39,7,68,-16,-6,0
1,2,4,-2,-39,5,3,2
-3,1,2,8,13,0,-3,-2
1,5,7,-1,-9,5,2,-1
0,-3,-4,15,20,-18,-6,-2
-6,-14,-42,-19,-23,-5,-3,-3
0,7,12,-26,-14,6,3,-1
-2,8,12,37,36,17,4,2
4,3,23,21,12,-20,-4,2
-3,-13,-30,-26,-16,-4,-5,-4
-1,-3,6,-5,-7,7,0,0
-2,7,15,-1,-11,0,-2,-3
5,0,-8,-7,-5,-22,-4,4
-2,-6,-8,-7,-5,3,-2,-2
-1,1,1,-17,-38,0,-1,-5
1,9,12,10,66,11,3,-2
4,-3,-4,14,-8,-17,-2,4
0,-1,-4,18,12,2,4,-3
-3,-3,20,-2,1,6,1,-6
-6,4,0,-31,-28,-6,-1,-5
0,-13,-12,-2,-34,-23,-8,1
4,10,4,31,47,15,5,1
-4,-18,-16,-8,-3,3,1,-4
-1,15,17,-20,-15,2,0,-4
-2,-13,-17,-12,-29,-16,-4,-2
-1,-6,-1,3,18,1,-4,-5
-4,1,5,-16,-11,6,2,0
4,8,19,33,22,3,0,-2
0,-18,-55,-11,-9,-20,-3,2
-2,1,11,-32,-33,-7,-5,-6
-4,-1,5,14,12,9,3,-4
2,6,9,28,18,7,3,1
1,-2,-14,-20,-15,-21,-6,-2
-5,-27,-37,-20,-23,-8,-8,-5
0,7,11,17,-23,4,4,-1
-5,-3,3,13,65,11,6,-2
4,-2,-4,2,-14,-22,-4,0
-1,-17,-2,-3,-7,3,7,4
-4,11,-4,-22,-20,-2,-12,-16
-1,5,7,2,-33,-1,-37,-14
6,-3,-21,-9,22,-20,2,8
1,-6,4,-3,-23,7,15,1
-7,6,25,26,43,15,-1,1
-17,-3,5,-2,-4,0,14,3
19,15,7,-2,-17,-20,-10,0
7,-2,7,-3,2,5,6,5
-2,-5,-7,-7,-15,1,-2,-1
3,5,3,-12,15,-3,-3,0
5,-10,-16,1,-29,-20,5,2
1,5,30,21,37,5,-8,8
0,0,-10,-13,-3,11,30,17
5,15,25,13,13,15,68,29
-3,-17,-35,-25,-32,-38,-128,-33
5,3,-2,-4,-8,3,28,17
9,7,11,29,25,22,57,22
0,-5,-3,7,14,-4,-77,-24
-14,-14,-20,-23,-26,-24,5,0
-20,-4,-10,-27,-28,1,16,4
3,8,17,-8,-4,11,35,8
13,11,7,43,28,-1,-17,-6
4,-17,-19,-28,-16,-26,-37,-13
-10,-3,-14,21,17,8,4,2
6,5,-3,-7,-1,10,10,0
6,-27,2,-12,-21,-10,0,0
-21,-3,-13,-17,-9,-16,-5,-6
-16,-9,-2,-21,4,4,-1,-1
13,-8,-31,18,-24,5,0,2
4,21,44,14,41,7,2,2
10,-8,-43,-11,-23,-17,15,8
-21,-7,-11,1,16,2,-26,-7
17,-8,-7,-13,-38,-1,-15,-2
0,16,10,-1,31,0,11,2
19,-2,-13,5,2,-12,6,12
0,-10,-5,-7,-9,-2,5,-1
-11,-6,-5,-11,-29,-1,-30,-19
-23,5,9,23,38,7,0,7
8,-5,-18,-27,-22,-10,12,3
8,5,3,14,14,6,7,0
0,6,8,-16,-33,3,3,4
-6,-8,-6,12,33,1,-1,-5
3,5,12,3,-17,-7,1,7
0,-25,-67,10,18,1,12,4
13,11,12,-11,-12,4,-11,-2
-3,-8,-27,-7,0,1,-7,-7
11,13,8,-19,-20,-20,-4,4
0,20,39,19,22,4,17,0
-7,6,10,-7,-17,-4,-19,-6
-7,8,3,23,30,6,-3,-13
0,-7,-14,1,2,-13,-5,6
7,-2,-16,-14,-12,0,7,8
-1,-7,-7,-8,-2,3,-2,-4
-4,11,21,4,-2,-5,3,-4
18,-6,-19,-27,-24,-19,-4,6
-6,-7,3,9,9,5,0,1
-8,5,10,0,20,9,1,-16
10,7,12,20,-4,1,8,21
7,-14,-32,-6,9,-10,-21,-2
-6,0,-8,-26,-31,-2,-11,-3
4,0,8,30,37,13,11,10
-5,12,27,-7,-9,-5,6,3
8,-1,-24,-1,4,-5,21,5
0,-19,-26,-23,-20,0,-42,-5
-27,9,31,-4,1,3,3,-22
22,-6,-13,36,29,4,6,15
-4,3,-12,-21,-11,-14,12,8
18,-13,-9,-16,-6,10,10,13
-49,-12,-16,15,1,-1,3,-30
3,1,2,-13,-12,-7,-6,-6
11,-9,-19,-1,7,-12,-15,-7
5,8,13,-43,-31,3,-4,21
-14,3,2,45,19,17,15,-12
-1,9,19,23,60,2,2,-1
14,-2,-12,-15,-27,-2,2,2
6,-6,-3,-32,-24,1,6,2
-8,-4,-1,12,6,8,-21,-20
-16,2,6,-8,-17,-6,13,15
11,-9,-31,-11,11,-4,-15,9
-8,5,14,15,3,1,-4,3
-10,2,6,3,4,12,66,9
-8,0,2,-6,-6,-3,-23,-15
-9,-10,-16,-1,0,-14,-64,-26
13,8,14,3,1,-1,1,-3
-19,12,22,-8,14,11,2,13
-2,-6,-12,-12,-16,-10,-14,-3
11,-7,0,19,-14,-6,1,4
8,-6,-19,-16,0,0,-8,-10
-15,-2,-2,3,25,15,7,-3
-3,-1,-6,-8,-18,-9,-16,-12
-12,-3,-10,2,10,-13,-86,-11
29,29,21,-16,-7,-2,-23,-8
19,3,-1,16,11,9,4,7
-3,2,0,15,1,-1,18,8
-60,-34,-20,-21,-24,-6,38,-2
35,9,-2,-32,-12,-8,-93,-19
-21,-2,-5,24,12,9,3,-3
24,6,7,-15,7,6,24,12
-15,2,12,33,26,-3,-1,13
-4,-5,-11,-21,-16,0,-7,-4
40,21,24,8,-21,3,-46,-11
-7,9,13,3,17,1,-10,9
-11,-22,-23,-1,2,-15,-6,2
27,2,5,-3,-11,8,-27,-3
3,7,20,3,14,2,-7,-21
-41,-13,-3,-3,-14,-18,-102,-26
54,0,-12,-3,12,1,-49,-15
-27,-11,-12,26,-3,-4,14,0
9,11,6,-24,2,12,85,12
-39,-11,-2,-13,-28,-32,-110,-74
35,10,0,-35,-6,-2,62,21
-20,-33,-29,18,-14,-13,-91,-34
19,8,13,16,18,2,43,9
-40,-9,0,-2,-4,6,-1,6
46,8,-15,1,2,-1,-4,2
4,-2,34,-45,-28,-15,-12,8
-49,-8,-33,6,11,5,-45,-15
25,4,17,9,13,-3,22,-6
26,-9,-35,35,21,6,-27,0
2,-13,-10,-31,-25,-3,41,1
4,12,13,-28,-17,-5,-6,-13
-69,-13,-5,12,-9,-5,0,2
127,21,3,25,11,19,44,51
-128,-12,2,1,8,-1,17,-22
5,7,30,-5,9,2,19,10
19,15,-15,-18,-5,2,-31,-39
57,-4,-43,16,-13,4,-33,18
-34,20,34,19,-3,-8,-5,18
28,8,26,42,61,8,54,24
-41,-3,8,-34,-49,-21,-45,-30
-39,-17,-19,-20,-3,5,33,-2
30,-3,5,-4,-19,-7,55,10
-27,-12,12,4,16,-4,39,11
35,10,13,15,5,7,48,15
22,1,-10,-11,-3,7,37,23
4,2,-3,-2,-11,-9,-19,-6
-18,20,6,5,-3,-6,8,-18
-7,12,5,21,5,0,-5,-4
33,-15,-1,-17,20,16,18,16
-75,0,-15,22,3,-8,10,0
40,-7,-23,26,-6,-3,49,18
-29,-6,-3,-16,0,7,-8,-11
39,0,-9,-28,-14,-11,-6,7
0,0,7,5,-30,-4,-1,0
16,1,-1,20,50,-6,-40,-1
10,0,-15,-31,-43,-4,-7,-14
14,13,31,-61,-4,5,18,31
15,4,-29,88,28,9,-23,1
35,3,21,46,13,-16,-2,1
-46,4,13,-21,-22,3,39,11
-15,-18,-14,-22,-3,-2,8,-9
-29,-6,-12,-19,-13,-5,-23,-26
-29,10,13,12,12,-8,7,-23
12,1,-9,16,-1,15,21,-3
13,-10,-7,-12,0,4,-71,-15
34,10,-3,-45,-8,-3,-23,10
-128,8,31,37,1,-9,-38,-27
18,5,3,-5,-11,7,9,12
22,1,-7,34,29,12,9,11
18,3,4,-27,-10,-3,6,3
-25,0,7,11,-17,-21,-66,-16
-8,0,-4,-15,2,1,-3,-3
35,-15,-26,-28,-38,4,1,6
-20,0,9,18,48,-1,0,-6
-12,5,17,11,-6,-12,4,-6
17,4,-1,-4,-7,3,2,9
-5,-6,-10,-15,-15,2,-4,0
-7,-5,-3,-10,0,-6,-4,-8
12,6,14,4,-5,-13,15,9
2,-3,-4,-5,-19,10,5,1
2,-3,-8,8,23,6,12,6
0,-13,-5,-12,-9,1,-23,2
1,15,20,25,20,-13,9,1
-3,0,0,1,-6,2,4,0
0,-12,-12,-5,-34,4,-1,-2
2,-1,4,-13,30,-3,-2,-2
-4,4,10,9,-27,-9,4,-1
-1,-5,-8,-32,-34,-5,-3,-1
1,-8,-6,43,48,4,-6,-3
-2,-2,2,-9,8,1,0,-1
-4,0,9,-5,-36,-9,5,2
-4,1,-1,-10,6,0,-3,-3
4,-9,-21,-26,-27,-1,-7,-3
-3,3,7,23,42,4,0,-2
7,9,21,19,5,7,9,1
1,-1,-7,-10,-29,-7,-1,3
1,-9,-12,-1,3,-5,-11,-2
-7,-5,-10,-8,16,-1,-1,-5
1,7,7,-9,-22,1,4,2
-2,-3,3,2,8,0,-8,-3
0,-11,-6,-6,4,5,2,0
-5,-4,-12,-12,-8,-2,-3,-4
-6,-4,13,-6,-34,0,1,-7
1,5,7,27,43,-3,0,0
-4,-5,-3,6,-10,1,0,5
-1,-9,-5,-31,-6,-4,-3,-4
-2,4,2,15,-27,4,2,-4
0,6,4,21,45,-4,-6,-3
-2,-22,-16,-17,-44,-4,-4,6
0,-3,-13,-17,9,4,-2,-8
-8,1,14,3,6,9,2,10
-5,-13,-47,21,22,-8,-2,-19
5,19,48,-16,-25,-7,-5,-1
-9,-41,-62,-31,-20,-2,2,-4
-2,22,30,8,6,3,1,1
2,15,45,12,-9,-9,-4,-4
-2,-7,-10,12,37,12,3,0
1,14,32,-6,-16,1,-6,-19
-6,-21,-23,4,18,4,5,7
-4,-9,-12,7,-8,-1,-2,-4
1,6,10,13,15,-2,0,-2
-6,-22,-26,-27,-17,-4,-4,4
-1,30,51,2,-40,2,-3,-6
-1,-14,-82,12,44,5,9,-12
3,-10,-33,-14,9,1,-13,2
5,19,41,2,-15,0,-1,-6
-3,10,1,5,2,6,5,-13
-4,-20,-19,-32,-27,-10,-3,13
1,-7,-14,24,27,5,1,-6
-3,3,-40,-40,-37,1,-2,-3
1,25,63,67,66,12,7,2
1,8,6,-5,-7,-4,-1,-3
6,-26,-31,-21,-20,-2,-2,9
-6,-6,-7,-10,-4,1,5,-8
-3,21,41,26,7,5,3,4
-3,-13,-23,-21,-5,-15,-5,-10
-2,-18,-66,-5,-4,-5,1,6
1,-3,13,2,0,3,3,-6
-1,8,-7,0,-3,7,-2,-6
-2,11,44,-3,2,-11,-4,1
4,19,47,-5,-3,-1,-1,0
-5,-16,-76,-18,-15,3,0,-5
-4,15,56,-7,-23,-2,-2,-8
-1,7,18,27,17,-9,-1,0
6,5,35,11,21,11,1,3
-5,-12,-35,22,37,2,-2,-4
-3,10,6,4,-39,8,4,-2
0,-4,-9,-25,-13,-17,-6,1
-2,-8,-8,-6,-4,0,-2,-2
-2,3,4,2,-2,1,-4,0
-4,1,-3,-5,-8,13,4,-4
-1,3,7,-9,0,-12,-5,1
2,0,9,12,0,-1,-2,2
-8,-28,-67,-4,11,1,-2,-3
3,16,26,15,3,13,4,-1
4,25,70,-7,-9,-18,-4,0
-7,-18,-30,-10,-5,-6,-6,-6
-4,3,12,4,-3,4,0,-2
-8,-1,-23,-26,-3,6,0,-16
2,-20,-5,15,-45,-16,-1,15
1,-2,10,34,103,7,3,3
2,2,-19,-15,-40,4,0,-2
-6,13,28,8,9,9,2,-9
1,2,0,-5,-11,-15,-7,-2
-3,-8,8,1,-7,-8,-1,3
-11,-40,-110,-27,-6,-4,-10,-8
-2,10,45,-2,-2,17,5,8
1,14,25,11,-7,-20,-4,0
0,-7,-3,-10,3,4,-3,-4
-2,9,8,-3,0,3,1,0
-2,22,63,16,3,14,5,-3
-4,-14,2,-2,2,-17,-5,-4
2,3,15,-10,-5,-5,1,-3
-6,-25,-51,-7,-11,-2,4,-3
-6,17,60,5,-11,6,0,-7
-1,-2,-26,17,8,-13,-5,1
-2,-19,-16,-8,24,1,-4,0
2,4,-8,-30,-43,-4,-3,-6
-4,3,14,28,26,13,6,-1
1,13,24,3,-1,-16,-2,-2
-4,-17,-69,-36,-24,-8,-3,-4
-1,-2,10,15,-7,-2,-1,-3
-3,3,-23,0,39,15,4,-2
1,-3,-13,-23,-35,-25,-2,2
0,-6,-9,-3,-27,3,-4,0
-1,15,62,65,71,11,0,-3
-5,-3,-20,-21,-18,4,1,-3
-1,-11,-18,-28,-20,-16,-6,1
-3,-1,-13,-3,-16,-1,-3,0
-5,-14,-19,-6,-6,2,-2,-5
-5,-15,-26,-4,-22,3,-2,-4
3,-1,-16,-38,9,-13,-3,3
7,10,32,65,13,9,2,3
1,-7,-46,8,32,4,3,-1
-3,21,38,-19,-32,5,2,-2
0,1,-10,-33,-10,-15,-2,2
2,5,1,58,47,9,1,3
-2,0,8,-25,-20,-3,3,-2
-3,5,9,-12,-22,11,2,-4
1,-1,-13,11,22,-20,-5,1
2,-10,-8,5,-4,4,-2,2
-6,1,13,-3,0,3,-4,-4
-2,11,31,-9,-20,2,2,-1
-4,-20,-42,-22,-30,-23,-7,3
2,-4,3,13,47,9,-1,-1
1,2,-8,31,-5,4,5,0
-5,1,15,15,16,7,-1,-2
-1,-4,3,-36,-28,-27,-10,-3
-1,-7,-18,3,-21,-1,-4,-1
-4,7,0,-8,13,6,0,-2
-5,7,11,15,15,7,2,-1
1,4,15,-23,-20,-24,-8,1
-1,-17,-33,-4,-6,3,0,3
-1,5,45,1,-10,-2,0,-3
0,23,57,6,-9,10,1,-1
-3,-8,-22,13,44,-16,-5,0
2,3,-8,-41,-37,2,-4,3
-4,5,29,9,-35,-1,-5,-4
1,18,44,59,82,23,7,4
-3,-24,-83,7,12,-17,1,-1
-4,-7,14,-33,-43,-10,-5,-6
-4,-8,-21,-25,-36,-8,0,-3
-2,10,18,2,13,13,3,-3
4,-6,-9,-16,-9,-23,-6,1
-1,5,20,7,6,1,3,-2
-6,-15,-4,-7,-27,-2,1,-1
-1,10,7,10,22,11,2,-1
3,3,7,14,13,-12,-2,2
-2,-12,-46,-16,-17,-2,-5,0
0,4,7,4,-17,-4,-1,-1
-1,11,14,25,17,10,3,0
3,8,31,17,26,-19,-4,2
-2,-23,-65,-38,-31,-1,-5,-1
1,11,20,21,21,7,0,-1
1,8,-18,-5,-14,2,0,-2
-3,-6,-12,-23,-24,-22,-8,-1
1,-4,-16,-2,13,6,-2,-1
-1,0,13,-2,-5,3,1,-2
1,8,15,4,-3,6,2,3
2,-3,-19,-5,-2,-20,-3,0
0,-5,-2,-11,-3,-3,-4,-3
-2,-4,2,-13,-58,-3,-2,0
1,9,19,38,100,18,3,-1
4,-5,-16,7,-27,-20,0,2
0,-7,-21,13,24,7,-2,-1
-6,0,34,-35,-27,2,-4,-4
-2,3,5,9,0,0,0,0
0,-6,-16,-39,-30,-22,-10,3
2,3,18,22,27,6,0,0
-1,-5,-25,30,4,2,1,-2
-7,7,23,-10,4,8,0,-1
3,-10,-32,-6,-12,-24,-4,0
0,-3,-16,-17,-18,0,-2,-3
-1,10,13,-2,24,10,-3,-2
2,12,17,-14,-19,2,2,-3
2,-1,-8,39,5,-18,-5,0
-1,-3,3,-8,14,5,-3,0
1,4,-9,-6,-31,0,0,-3
-5,-1,4,-1,5,0,4,-4
0,-8,-19,-9,-9,-19,-4,0
2,-2,3,7,13,8,2,0
2,-9,-41,-7,-8,4,1,-2
-3,10,19,-8,-6,0,1,-1
5,-3,-25,-19,-22,-16,-2,4
3,-2,7,31,42,5,1,-1
-1,8,30,6,-3,1,3,2
-3,7,3,-6,-8,1,-4,-3
2,-7,-18,-33,-26,-25,-11,-3
-3,-5,0,-11,-49,2,-3,-2
5,7,13,67,110,18,6,1
-1,10,13,13,9,3,4,2
1,-2,-2,-27,-43,-25,-5,2
-5,-19,-45,-27,-21,-7,-6,-6
-4,-17,8,-7,-9,1,-5,-2
-3,9,17,16,2,0,2,-1
2,2,-9,-9,3,-16,-5,2
1,0,3,6,6,6,-1,-2
-3,-26,-34,-13,-13,-2,0,-1
-6,12,18,7,2,3,-1,-4
9,11,5,1,4,-10,0,5
-2,-12,-10,-1,-1,1,-1,-3
-2,-13,-23,-24,-19,0,0,-2
-4,11,26,10,3,-3,2,0
2,-1,-8,31,26,-9,-2,1
2,7,7,-6,-10,1,-4,0
-1,-4,-8,-15,-8,1,-1,0
-4,3,4,-16,-28,-4,-1,0
-1,-10,-27,-6,14,-15,-3,2
2,0,9,23,13,4,3,1
-3,4,11,6,9,6,-1,-2
-1,7,11,8,0,2,3,1
-1,-8,-14,-18,-20,-23,-5,1
-1,-8,15,-5,15,3,-1,-2
-1,-1,-21,-9,-11,4,-1,0
-3,9,7,9,9,-1,5,-1
2,-11,2,-27,-17,-16,-2,1
-1,2,-3,9,5,2,-5,2
1,4,31,15,10,6,3,1
-4,3,5,-34,-13,0,4,1
3,-9,-10,29,10,-18,-4,1
-4,-4,7,2,-3,-1,-4,-3
-1,8,18,2,17,10,4,-1
-5,3,4,-14,-13,-3,1,0
-1,-11,-18,-39,-54,-22,-7,-2
3,13,42,42,72,14,3,2
-9,-37,-91,-7,7,6,0,-3
-3,9,9,2,-12,-5,1,-1
0,-8,-12,-22,-37,-20,-9,-1
1,0,-6,13,36,5,-1,-5
0,-10,-11,-39,-30,3,1,-1
-1,2,12,6,3,3,1,3
6,-1,-5,56,47,-7,-3,4
1,-1,-4,-31,-22,1,-5,-1
-4,0,6,2,-1,4,-2,2
-1,7,11,-9,-8,0,4,-2
0,-11,-23,-19,-10,-21,-5,-1
-4,-9,5,10,29,5,-2,-3
5,16,3,0,-5,7,4,2
0,13,30,9,-13,0,0,1
-1,-5,-9,-17,16,-11,1,2
2,-9,-16,29,6,4,0,-1
-2,-2,4,-8,-2,5,0,-1
0,10,13,-20,-19,-6,-2,-3
0,-15,-25,-27,-18,-15,-6,-3
3,-1,2,41,37,6,1,-1
2,6,18,5,4,12,4,1
-4,5,-1,-20,-18,-5,0,2
-1,-5,-2,4,-10,-17,-4,-1
-3,-4,27,-5,7,2,2,-6
-1,-5,-10,-15,-12,10,3,2
-3,10,7,30,12,3,1,1
3,-6,1,-2,13,-11,-6,2
0,1,-4,-19,-25,3,0,-1
0,2,9,18,6,8,2,2
-1,4,12,-3,-6,0,1,0
1,-8,-16,-19,-9,-13,-4,1
-1,4,3,13,10,6,-1,1
-1,2,22,15,2,10,1,-5
-6,-6,-5,-25,-15,-6,2,-2
-1,-10,-15,0,-11,-9,-3,3
1,-3,-21,9,36,7,1,0
4,0,-22,-16,-13,7,2,-4
-2,7,22,11,-34,-10,1,-3
3,-3,-14,21,46,-7,-3,0
2,-9,7,8,11,9,2,3
1,10,7,-15,-15,3,-2,-3
-6,-9,-32,-18,-35,-6,-3,-2
-1,-8,-6,6,39,-9,-3,2
2,1,2,-9,-11,9,2,-1
1,3,12,17,7,8,1,2
-2,4,2,-13,-3,-7,-2,-2
2,-4,-13,0,-10,-15,-5,-1
3,1,1,-3,7,5,-1,-2
-5,-4,-5,9,9,16,3,2
-7,-5,24,7,2,-7,-4,-4
-5,-38,-119,-21,-9,-14,-9,0
0,1,12,-14,-14,1,-3,-3
-2,-2,3,13,-10,7,1,-5
0,7,5,9,27,0,3,1
1,-7,-16,-42,-25,-6,-6,-3
0,-5,2,38,6,5,1,-1
-15,-1,9,23,54,8,-1,-11
-1,-7,-10,-31,-48,-10,-5,0
1,-5,-5,-5,-25,-15,-3,1
3,4,5,-4,26,6,1,-1
2,0,-9,0,4,11,4,-1
-1,10,9,-5,-19,-2,3,-1
7,-8,-4,-10,3,-7,-2,2
3,-7,-3,-3,-2,7,0,0
5,-10,-4,6,-7,6,4,5
-1,9,4,-37,-9,-7,-5,-5
-3,-22,-29,32,6,-4,-1,3
-8,-4,12,32,59,10,4,-4
4,7,12,-37,-45,10,2,2
4,-8,-37,14,28,-8,-2,-4
5,-3,-7,-5,-26,-13,-5,2
6,9,13,9,16,10,5,9
4,-2,9,-12,0,12,-2,-9
11,6,-11,10,-2,-2,-1,0
-15,-6,25,3,1,-7,2,5
-3,-6,-15,-29,-28,-3,-14,4
0,18,21,37,44,16,13,-4
24,13,0,7,8,1,4,15
1,-19,-47,-24,-20,-8,1,8
-87,-16,2,-9,-21,-11,-24,-29
21,9,16,7,-6,10,-16,7
-3,-1,-6,12,39,16,45,6
-5,-20,-25,-33,-34,-18,-24,-10
36,24,21,30,27,11,14,45
8,-11,-12,-35,-28,-11,-14,-38
-19,-9,1,-4,-39,-8,-7,-27
5,-1,11,37,53,-6,-5,0
-2,-8,-7,-15,-28,2,3,11
11,13,20,-5,-9,12,3,-2
-28,-1,-22,-1,7,-1,4,5
28,6,19,-8,-11,-10,-1,9
26,9,5,15,5,7,8,-11
-22,-7,-2,0,-3,16,-16,1
-16,2,8,-16,-8,-13,-6,-22
67,16,10,19,3,5,14,23
-52,-22,-18,-7,22,-9,-8,-16
8,12,21,22,-10,15,7,10
-69,6,24,-5,8,2,5,-4
11,5,-5,1,8,3,4,-1
66,8,7,-20,-21,3,11,18
-40,4,-5,14,16,21,9,1
-23,-21,-28,-20,-12,-12,3,-35
72,13,18,11,23,6,-13,-1
-48,-2,1,-4,-4,-2,0,19
-47,-17,7,8,-3,11,9,-1
13,17,5,-7,-5,-9,10,-14
45,-11,-21,-15,-15,-8,-5,26
-41,-16,-6,-7,-6,-12,-1,-14
-1,-3,-3,7,-17,1,-45,-17
14,6,1,-4,20,1,28,20
-11,4,12,7,12,9,30,24
8,-4,5,-17,-45,-22,-48,-18
-5,-1,-10,25,31,17,9,10
20,16,19,13,37,6,30,34
34,1,-14,12,1,1,-5,-13
-4,-25,-18,-16,-12,4,34,11
-8,12,36,-8,-20,-11,-38,-22
-53,-37,-38,-2,-2,-14,-57,-18
-7,11,1,2,6,2,14,15
55,-6,14,-5,-4,-7,-5,-2
-94,-33,-12,-24,-25,-11,-23,-41
15,21,23,-1,-7,-5,5,-4
1,-22,-52,-13,6,-2,-17,-8
20,7,0,-4,1,4,11,23
-14,5,6,-16,-31,-10,23,6
-8,-7,15,20,-5,-14,-50,-42
-7,-12,-31,-18,-3,-1,-12,10
38,12,10,13,20,16,19,4
-5,20,33,-14,-8,13,60,44
-41,-27,-44,-8,-6,-12,-41,-40
40,-17,-4,6,-4,3,14,34
42,3,13,-23,-18,-1,-3,3
-99,-1,-21,-24,-12,-1,2,7
127,31,38,12,6,8,40,25
-124,-19,-19,26,27,-6,-36,-39
61,22,33,-15,-18,0,-4,-25
-12,5,-22,9,10,4,18,-27
24,11,11,-21,-22,-3,10,24
118,16,-18,-14,17,31,94,79
-114,-9,9,-26,-30,-25,-77,-35
-1,-22,0,5,6,4,55,21
35,0,-9,-12,-20,-16,1,-27
-4,-3,1,-6,9,21,-1,6
-25,17,1,-20,-5,0,-1,-39
13,13,26,59,20,11,2,-10
15,-23,-7,-4,6,25,21,8
39,7,-8,-25,-23,-3,-5,11
-18,25,17,16,12,6,-8,19
3,17,16,-23,-23,-29,-24,-33
-114,-4,9,-8,-10,13,13,-22
-53,-75,-31,-14,12,7,29,-25
-37,-38,-45,-14,-14,1,-5,-7
10,34,53,1,-18,-19,28,10
-11,15,-35,-37,-12,-17,-39,-35
114,22,51,106,22,2,35,25
-77,-69,-66,-46,-7,-26,-36,-32
53,56,9,-17,-5,-13,16,8
8,-106,-45,-30,-38,-3,19,20
10,5,-55,25,21,26,38,10
4,18,17,19,26,-22,-32,-33
-25,25,33,12,-3,-11,0,0
13,-10,-8,-46,-40,11,72,60
69,-12,-17,16,2,3,74,14
-59,3,27,51,74,11,4,-10
-29,-17,-12,-3,-33,-23,-4,-24
43,5,-6,-36,-35,9,4,14
-17,-25,-21,-42,-44,-11,-14,-3
2,-15,1,50,45,11,18,-6
-32,-8,-29,-6,8,7,9,5
-96,9,20,16,-12,10,-19,-31
44,-3,-8,-5,12,33,-41,25
93,6,-27,-23,-22,-32,-104,-72
-128,-25,15,-11,1,-26,-9,-19
77,4,12,0,-24,3,5,11
26,-1,-18,2,15,4,22,9
0,-5,1,-6,0,-5,16,9
-17,2,-2,0,-5,-16,-1,-9
8,-8,-14,-12,-10,19,42,19
-1,-1,-6,-9,1,-3,-18,-3
5,0,-3,-16,-13,-10,4,-7
-1,7,12,-5,-8,-28,9,2
2,2,-1,23,4,30,-1,-3
9,1,6,35,36,17,18,23
-5,1,3,-7,19,-4,-2,-1
-14,3,8,4,-44,-22,0,0
-10,-5,-7,8,20,13,-8,-1
1,-4,-14,-37,-27,-6,-8,-2
1,3,3,-6,-18,-20,-1,1
3,6,12,34,28,-11,5,-4
5,-3,-8,-43,-46,17,6,9
3,-10,-7,32,56,3,-2,3
14,5,5,8,25,-5,-1,-7
4,2,9,-17,-57,-20,6,0
-8,-6,-14,-19,4,7,-9,-5
12,-2,-5,-4,-14,-2,-5,-1
5,-4,-6,7,-8,-6,0,-4
6,12,18,4,20,-10,9,3
16,-1,-8,6,5,15,0,5
-7,-6,-2,-9,-2,-5,-6,-3
-19,-8,-10,-12,3,-4,-1,-1
-1,8,14,-2,-38,-17,2,-4
1,-1,-21,12,14,7,-5,-1
2,-5,0,-30,-21,4,0,1
0,0,1,26,13,0,0,-4
-4,9,16,27,31,-15,4,-1
-3,-4,-11,-24,-22,3,-5,1
0,-4,-9,-15,-13,-7,-3,-2
-4,-3,-3,-6,-6,-2,-1,-1
-1,8,14,6,-6,1,3,-1
3,-2,-10,-7,-12,0,-6,-1
-3,-5,-7,0,3,2,1,5
1,1,4,5,15,-2,4,-1
0,7,9,6,-1,-5,7,1
-7,-1,-9,-12,-12,-5,-1,4
1,-6,-6,10,6,11,-1,-1
0,-2,2,-35,-16,-3,0,-1
2,10,18,63,45,7,7,2
-8,-2,-5,5,27,1,1,2
3,-7,-7,-23,-32,-2,-2,-5
16,-2,-3,-13,-20,-3,-1,-3
-45,-6,8,-9,3,-2,2,-5
6,-1,-7,15,31,3,-4,1
17,-5,-8,0,-14,-4,-3,-1
-2,-3,0,-11,-11,-3,3,0
-1,6,12,-1,-10,-4,2,-3
3,-6,-10,-7,-5,-9,-5,-1
2,-4,-5,-10,-2,2,0,-4
0,2,5,18,15,6,1,0
-1,3,9,-4,0,5,2,-2
-1,-2,-6,26,23,-5,-1,-2
2,-4,-4,-9,1,6,2,8
-5,-3,-4,-34,-33,-3,-2,-2
-3,7,14,38,12,8,1,-1
2,-5,-12,-10,14,-8,-5,2
0,-3,-6,-17,-23,0,-1,-1
-1,-2,-1,-14,-8,0,-4,-4
-3,8,13,8,-4,2,4,-4
-1,-5,-11,9,2,-8,-1,2
3,-6,-6,12,9,2,-3,1
8,-1,0,-23,11,2,1,-1
-4,3,11,23,-19,-1,1,-6
-1,-5,-10,-10,-10,-17,-1,2
-1,-1,0,-4,21,4,-2,-4
-4,-4,-13,-10,-21,-2,2,-3
-2,13,28,5,5,4,1,-3
-2,8,6,-4,14,-4,-3,4
1,-8,-7,-4,-19,-3,-3,0
0,-1,0,-8,-11,-1,-4,-5
0,2,22,-9,-7,1,3,-2
14,9,1,14,1,-12,-5,1
9,4,7,1,17,8,-4,1
-20,-24,17,3,-14,1,-3,-10
-16,-73,-113,-16,0,-2,-5,-4
31,11,10,-13,-13,-19,-3,4
-15,8,17,-3,-3,1,-1,-5
2,6,3,25,27,6,-3,-1
10,17,16,0,0,4,4,3
3,-1,-15,-21,-12,-15,-7,-2
5,5,5,-19,-32,1,0,3
-1,-28,-17,40,41,7,2,1
-8,16,16,-19,-30,3,4,-2
7,17,7,-21,2,-11,-4,4
-17,-49,5,23,-3,-1,7,12
1,13,34,9,24,8,-5,-3
-2,5,24,4,-10,3,5,4
1,19,7,-1,-20,-20,-8,-1
-7,-32,-30,-22,20,0,-2,-3
2,12,10,-27,-50,0,2,-1
-2,2,-2,42,57,9,5,-3
2,17,29,-19,-28,-14,-2,-6
-6,-28,-1,-10,-3,5,0,8
13,46,76,9,2,1,3,14
-48,-79,-37,-7,-8,0,-15,-65
15,28,-28,-9,-6,-11,14,32
8,1,-15,3,7,8,4,16
0,20,39,9,4,5,-9,-10
-21,-57,-39,-18,-12,0,-6,-14
6,27,52,7,-2,-15,3,17
-7,-35,-71,-7,1,0,-8,-31
4,38,43,7,1,-4,2,4
-10,-32,-64,-10,-10,2,2,-2
-7,-28,-73,-36,-20,-22,-12,-10
-4,-6,1,14,18,10,5,12
-1,4,-8,17,16,1,3,-1
3,17,38,5,-13,2,1,-3
3,5,-10,-1,10,-13,-4,7
-3,-3,-4,-1,0,0,0,-35
5,18,16,10,4,5,-2,6
-7,-8,28,-16,-20,-1,2,7
5,-3,-41,-6,-9,-15,-3,-9
3,-9,33,9,16,10,0,1
4,12,33,30,40,6,1,-3
-1,0,-42,-12,-26,3,3,0
0,-47,-128,-17,-36,-17,-7,-4
-7,5,59,6,38,2,-1,0
9,10,16,-2,-16,1,2,2
1,-7,-66,-10,-7,9,2,1
-5,-16,-11,10,13,-13,-8,-7
-4,-8,-3,-10,-3,-4,14,15
7,12,19,-12,-10,-1,-11,24
-12,-27,-80,10,-2,7,10,-34
12,47,70,23,7,-15,-9,16
-14,-60,-49,-24,-10,-9,-2,3
7,13,39,14,13,12,7,7
-7,-2,-24,-11,-13,1,1,-4
0,-3,-24,-11,0,-16,-10,1
2,0,-6,-8,23,7,2,0
-4,-10,2,39,1,4,0,0
-6,2,4,-4,-10,3,0,-5
0,-6,-12,-22,-10,-17,-7,-4
-4,-19,-27,-17,-8,-1,-2,8
4,5,-22,-37,-36,-6,2,0
-4,-7,44,53,40,12,4,-6
1,-1,6,8,18,-15,-5,2
2,0,-15,-22,-25,-3,1,-5
4,7,35,7,6,6,0,0
3,20,66,24,9,10,-3,-8
-16,-12,11,-27,-22,-27,-1,23
-3,-6,-18,-8,-10,-3,-3,-11
-2,21,63,-15,-15,-4,-5,2
2,1,-15,3,-12,8,4,-1
2,-7,-25,20,33,-11,-9,0
1,-3,-6,-7,-14,0,-2,0
-2,-3,2,-6,-2,2,1,-1
-1,6,-4,3,11,9,1,0
-6,-18,-27,-26,-31,-19,-10,-2
-2,-1,-30,13,38,4,-1,2
-5,-17,17,-6,-11,2,-1,1
0,11,15,-7,-3,4,4,-3
-3,4,65,-22,-26,-30,-11,1
1,-13,-66,25,3,8,0,-2
7,10,13,27,51,4,3,3
-3,4,-1,-33,-49,-4,0,-4
-6,-6,1,-10,20,-13,-7,1
-2,-2,11,27,-3,-1,0,-2
2,9,8,-14,-4,6,1,-7
-6,-20,-5,12,0,4,3,13
0,6,8,-14,-6,-24,-6,-3
-6,-22,-47,-13,-13,-4,-6,-4
4,6,14,-2,-4,1,2,2
2,18,37,-3,-14,-2,1,-1
-2,-22,-39,3,15,-13,-5,0
3,-1,-5,-2,0,4,2,1
2,18,31,6,-4,5,-2,-2
-8,-18,-4,-19,-12,-7,-7,-9
0,-13,-14,-36,-68,-21,-7,-12
-1,-3,5,82,112,14,5,-3
1,9,13,1,1,2,4,4
1,20,38,-16,-49,-6,2,-4
0,-3,6,-29,11,-9,-3,0
-4,-10,-12,-8,-3,1,-1,-3
4,12,37,50,27,13,1,0
1,10,12,-9,-1,8,5,0
4,-7,-29,1,-11,-20,-4,-1
-3,4,12,-15,-13,-5,-8,-1
-6,-21,-27,-7,3,1,2,8
-5,18,30,4,1,4,-2,-28
1,-3,-11,-9,-9,-21,-5,1
-2,-11,-24,2,12,3,-2,0
-1,9,-9,-2,3,10,1,-2
-4,6,0,-24,-9,1,3,-2
-2,-10,-13,20,18,-15,-5,-2
2,-11,-24,3,-37,-3,-2,-2
1,6,19,31,57,11,3,1
-1,11,29,16,18,9,5,-1
3,-1,-4,-32,-36,-20,-1,5
-2,-1,-1,-12,-23,-5,-4,-5
-6,-6,-1,-25,-16,2,-4,-4
-7,-6,2,31,21,3,5,0
3,-3,-5,-2,5,-13,-1,-1
-4,-18,-65,-13,-7,1,-4,-3
1,19,49,5,2,1,-1,5
-6,-15,-20,-22,-27,-5,-4,-7
1,2,2,-3,-13,-12,-8,-1
3,14,54,31,62,11,2,5
3,-2,-19,-5,-21,6,7,2
-1,7,1,-24,-36,-2,-3,-10
1,-7,-14,14,26,-18,-6,3
0,-11,-9,0,-3,8,4,-1
-1,11,34,12,41,8,4,3
-5,-13,-20,-9,-29,-5,2,-2
-3,-8,10,-15,-16,-15,-9,2
-1,9,18,-3,-15,1,-1,0
0,-14,-26,-2,4,7,2,-1
-4,13,32,0,-3,-1,-4,2
-2,-5,-14,-12,-9,-19,-4,-7
-1,-4,-33,-19,-21,-1,0,-3
0,8,15,16,9,7,3,0
-7,-12,-30,-36,-3,1,-1,0
2,-1,-3,67,48,-7,-1,2
1,1,3,-2,-4,3,-2,-3
3,6,6,-45,-40,2,0,5
-4,-5,-25,24,21,2,-1,-4
5,10,11,-2,-12,-14,-5,-2
1,1,8,-6,11,8,4,1
3,4,10,9,13,10,6,5
-2,1,-19,7,-11,-4,-4,-3
-2,-7,0,-20,-4,-17,-8,1
0,5,20,-6,-4,4,-2,-1
2,0,-3,-6,-7,5,-2,-3
-3,10,24,-53,-43,-3,1,-2
3,2,5,54,51,-6,-2,7
-3,-20,-27,19,21,1,-4,-3
4,6,18,-13,-44,0,2,4
-2,1,-32,-13,23,0,-5,-3
2,-18,-41,-37,-34,-13,-4,-3
-1,1,13,43,43,2,0,-1
2,8,6,-4,3,9,6,-3
-3,-6,-3,-10,-23,-5,-2,-1
1,-8,-19,-15,-18,-17,-5,-5
-3,1,5,-10,3,2,-1,-2
3,10,22,18,5,11,4,1
-2,3,2,30,12,-2,-1,2
4,-11,-23,-28,-13,-18,-7,0
1,6,27,-1,-23,-2,-3,-5
-4,-8,12,27,35,15,1,-1
3,10,6,-12,-9,-7,0,1
-6,-32,-60,-52,-62,-19,-9,-2
-1,-4,1,26,35,11,2,-2
1,10,37,12,39,12,3,3
-1,9,19,8,-10,-2,4,3
4,-7,-32,-17,-18,-14,-3,1
-1,4,26,-16,-15,1,-4,-1
-6,-8,-6,0,4,5,0,-2
-2,7,12,3,5,2,-2,0
2,-8,-23,3,4,-11,-3,1
1,-1,-3,-12,-11,0,-1,-1
2,6,20,6,-4,10,2,-2
-4,14,-4,7,19,0,4,0
2,-12,-9,-23,-35,-11,-3,1
1,-1,4,38,70,7,-5,2
2,3,4,-2,-8,6,1,2
-4,-3,1,-16,-23,-8,1,-3
-3,-9,-15,-4,-16,-16,-7,-1
0,-7,-18,-37,7,2,-3,-3
0,12,20,42,22,15,7,3
-1,5,6,-4,-15,-8,0,0
0,-13,-15,-35,-2,-13,-7,-1
-1,-2,23,28,-1,5,2,1
0,-3,-38,-4,1,14,2,0
0,10,31,-4,10,-10,-1,-1
2,0,15,-11,-26,-10,-2,2
-6,-17,-36,6,12,7,-4,-3
0,5,16,19,10,12,1,-1
0,12,13,-6,-11,0,0,0
1,-8,-14,-6,-3,-12,-4,0
-1,3,9,-4,-4,0,0,-3
-6,-8,-4,-5,-4,5,1,-4
-3,5,6,-11,-16,-4,-2,-1
4,-5,-2,-2,0,-14,-2,2
0,2,23,18,16,7,1,-2
0,2,-2,4,2,6,2,0
1,7,9,-16,-2,-4,1,-2
1,-8,-13,13,6,-11,-5,2
-3,-5,0,-17,-12,-3,-1,-2
-1,0,-36,17,16,13,3,-1
-1,10,9,-13,-17,-4,1,-1
0,-8,-7,8,21,-8,-3,2
4,4,18,3,-5,4,2,2
2,-1,-15,3,2,14,3,-2
-2,10,-7,-7,-8,-8,-2,-1
1,-11,-7,-22,-11,-16,-5,0
-4,-2,11,-20,-39,5,1,-1
-1,13,12,59,104,16,4,-1
-1,10,20,4,-14,0,5,5
3,-5,-25,-28,-32,-15,-7,-2
-3,-4,-2,-9,-3,2,-7,-3
1,2,8,7,-24,3,2,-3
0,5,5,-27,17,2,1,0
-1,-7,-9,55,37,-3,-3,-1
2,1,-6,-10,-1,4,-1,-1
-3,1,11,-29,-25,8,4,-4
2,6,1,24,-5,-6,-4,-2
-2,-17,-41,-2,15,-9,-5,-2
-6,-23,-8,-23,-19,0,-3,-5
-2,-1,9,-2,-19,7,4,-1
1,9,20,16,31,0,1,-1
0,-8,-40,-12,-17,-11,-1,1
-4,0,-4,-2,-6,-2,-5,-1
0,2,11,-33,-16,8,1,0
-1,3,6,42,12,0,3,2
2,-5,-3,18,17,-5,1,3
2,2,-7,-6,-3,1,2,2
-13,-10,-12,-13,-9,6,2,-8
-2,0,2,-11,-17,-3,1,3
3,-2,2,4,9,-9,-5,-4
5,-8,-11,-2,-5,7,3,1
-15,33,38,10,20,11,2,-7
3,-16,-69,-11,-9,-5,-1,0
5,-10,-13,-44,-40,-15,-5,-2
-2,0,21,30,17,3,4,1
7,-1,-7,31,29,17,8,2
2,12,17,-13,-10,-4,-6,-4
2,-4,-17,-9,-12,-9,-5,2
-5,9,8,-11,-1,4,-1,-4
-5,-11,12,5,2,11,5,-1
3,1,-5,-9,-11,-9,0,0
-9,-8,-12,0,14,-6,-7,1
6,-3,1,13,-5,4,-1,-9
0,2,6,12,7,11,3,3
3,11,6,-6,-4,-3,5,2
3,-7,-14,-5,-13,-11,-15,0
-4,0,0,-9,-5,2,-3,0
3,5,7,0,13,20,7,-1
4,6,-2,22,-20,-11,-6,-2
3,-11,-9,0,23,-6,-4,0
-7,-2,-1,-9,-13,2,0,-2
4,3,5,-3,-4,9,4,4
12,4,-3,-6,-3,-10,0,-2
-1,-2,-7,-38,-43,-8,-7,1
-6,6,-2,53,57,8,-3,-4
5,17,27,7,19,20,10,7
-16,2,13,-18,-39,-19,-15,8
-22,-13,-14,-29,-34,-6,9,-34
13,6,6,48,43,5,-2,9
-9,5,2,2,13,13,4,-18
1,4,5,-3,-17,-14,-13,8
30,-4,-16,-33,-15,-9,0,0
-8,-4,10,7,-5,5,2,4
-6,6,10,8,11,10,0,-1
-4,-12,-6,-4,1,-9,-3,-12
1,4,-8,-15,-19,-7,-4,4
15,6,1,2,-1,2,-1,-4
-29,-9,5,15,16,12,-3,-9
-3,2,-5,-7,-9,-13,-6,-8
8,-7,-10,-30,-37,-8,-3,3
-1,-3,5,32,58,5,2,3
27,18,16,3,-9,17,3,-4
-45,-14,-16,-20,-16,-7,-5,-10
-17,-7,-6,-9,12,-2,-2,-9
13,5,23,20,-10,7,6,10
3,2,-32,6,17,11,2,-6
-6,-9,-11,-25,-25,-9,-8,5
31,6,-9,25,31,3,3,7
-29,1,21,-27,-32,-1,-3,-3
50,16,27,36,33,16,5,4
-55,-5,2,-7,-2,-5,4,-6
6,10,-9,-16,-18,-2,3,5
8,-14,-25,4,29,9,1,6
1,4,16,-3,-14,10,8,1
11,-3,-12,8,-18,-17,-17,7
-13,-11,-12,2,36,-1,5,10
2,22,10,-18,-23,2,-3,-8
-5,10,22,16,2,14,6,15
-16,4,-1,-8,2,-12,-8,-35
-6,-12,-11,7,4,0,6,9
-1,-2,-1,-1,11,2,0,-6
-2,-6,6,-4,-15,4,-3,-5
11,-15,-33,-16,-12,-15,-7,0
3,6,-2,-11,-8,-13,-12,6
-25,-21,-22,-7,-6,3,-2,-16
6,4,9,6,-4,9,9,9
24,15,16,-4,14,-6,3,6
3,-37,-128,-16,-7,-9,12,8
-14,-1,22,-25,-37,-8,-30,-20
-46,-5,19,65,56,18,-2,-19
11,-3,-25,-16,1,-9,24,-3
-10,-14,-13,-22,-19,-8,-14,-13
-5,-1,-3,-11,-11,0,5,1
12,9,4,-9,-11,4,-25,-8
-17,6,4,20,-1,-13,-10,2
18,10,4,16,10,11,36,18
-15,-14,-11,6,26,3,-33,-5
12,20,26,8,-12,15,12,9
-25,3,0,-21,-5,-13,-2,-20
-9,-18,-21,3,-1,-2,-9,-2
-5,-8,9,-12,-26,-7,5,17
-18,5,-25,17,28,23,34,8
2,-17,-7,6,4,-14,-48,-6
-1,-7,0,-19,-12,-1,-5,0
7,1,16,-18,-9,8,107,19
37,10,-8,22,9,4,-128,-34
-54,5,15,-8,-4,-5,13,-12
-5,-23,-4,15,8,13,77,30
-44,-13,-8,1,-11,-11,-51,-29
-22,-17,-6,-12,-12,9,19,-6
20,15,2,-12,3,-1,19,16
94,-7,-3,4,-6,7,11,18
-39,-5,-10,5,27,-3,14,-36
-29,-8,-3,-10,-15,9,-24,17
-27,-1,-8,-25,-21,-12,1,-6
18,-4,1,6,30,4,11,4
-2,-9,-4,22,16,3,19,9
-44,13,40,-30,-14,3,9,6
25,-18,-39,6,3,-2,-7,28
-80,-20,7,40,3,-8,-11,-7
43,14,6,-5,2,3,8,8
-54,-7,5,6,11,14,17,9
39,12,20,-8,7,5,54,5
37,3,-17,19,6,-5,-31,8
-96,-6,26,-7,-5,-5,1,-26
127,28,-1,1,3,9,50,49
-128,-43,-11,2,-17,-5,18,-37
62,1,-5,-26,-12,8,8,-18
27,12,18,38,45,7,40,34
-60,4,25,-1,2,-3,11,-30
14,-11,-10,-33,-32,-16,-55,-5
-50,-13,7,-5,-20,-16,-14,9
5,-16,-2,11,12,17,127,23
-95,-6,-16,6,-4,-25,-128,-94
-29,14,9,-10,9,-2,7,-2
7,-8,-3,-15,-11,-2,11,2
-1,22,22,-10,-6,5,3,7
71,30,48,-8,-11,-6,-1,9
-58,-44,-64,-20,6,12,-73,1
54,26,8,27,18,-1,-121,-13
-44,-18,8,0,-1,-2,1,-22
12,13,7,0,3,0,23,8
-15,-25,0,-2,-2,13,8,15
45,-12,-21,-13,-10,-1,-64,-42
45,-15,-16,-7,10,5,-20,5
-39,12,21,20,0,-8,11,-5
-53,-5,-8,-15,-17,5,37,4
65,5,-3,1,5,3,37,30
-20,-1,15,4,-2,17,-2,7
4,9,28,64,48,-6,25,6
-12,-10,-2,51,19,8,4,-15
14,-16,-21,-72,-63,-7,4,14
26,11,23,28,42,0,11,14
-24,-4,-15,23,21,0,-5,-18
-12,-12,-11,3,-17,-1,-63,-42
3,-22,-8,-39,-25,-6,-128,-59
22,18,6,14,10,0,19,24
10,19,19,-19,-18,-12,17,-1
16,-9,-9,-19,-14,-5,-63,-9
54,9,-2,-23,-6,-5,25,59
-46,-22,-4,-20,-32,-11,-128,-90
-94,2,33,51,2,7,46,28
-20,-6,0,31,75,9,-2,-5
27,1,-2,-18,-21,6,8,3
-5,5,4,-14,-15,-6,-6,-19
14,-1,6,-10,-24,-14,-2,3
7,-1,-13,-25,-14,4,-15,0
5,-13,-9,12,-11,2,5,5
-45,-9,12,-21,34,2,7,-12
55,7,5,48,7,-16,33,11
-82,-15,-12,-11,-12,2,-24,-16
12,-9,-11,-22,-26,-4,9,2
-12,2,17,-8,-15,-12,4,-9
22,4,-17,-19,-12,-12,-1,20
-15,-8,-8,-8,2,11,-29,-29
-7,1,-6,0,-13,-10,-4,-5
2,-3,-7,2,14,16,1,-1
18,18,22,17,5,-12,9,-4
-34,2,-3,12,7,10,-3,3
-7,-4,-8,-15,-19,-2,3,5
9,0,-5,-17,-26,-12,-5,-6
2,8,14,13,25,-5,4,-5
0,-3,-11,-16,-6,5,-6,2
0,-10,-15,-14,-26,-4,-1,1
0,-3,1,14,17,-4,-2,-2
-3,15,25,0,-9,-10,3,-2
3,2,-2,47,67,14,-3,-3
4,-5,2,-28,-37,-1,-3,2
-2,-6,-12,-11,-5,-10,-2,-3
-6,12,15,-27,-32,-10,3,-6
6,2,5,0,34,11,-2,3
1,3,12,55,52,2,1,3
0,-3,2,-13,-26,-5,-2,-5
-2,9,22,-7,-22,-11,-3,-2
1,-4,-21,-12,0,1,-1,3
4,-21,-33,-38,-14,-4,2,9
-2,25,47,39,-23,-10,-4,-9
-7,-21,-46,10,52,-17,3,4
1,11,14,-12,-7,15,-2,-3
6,-1,0,-9,-26,-4,3,12
-3,-2,6,12,22,-3,-3,-5
-3,24,40,4,-9,-8,1,-5
-5,-26,-38,-14,-8,-7,-6,-2
10,22,14,5,-11,0,2,19
-6,-40,-63,3,22,-2,-6,8
6,37,55,-1,-10,1,5,-5
8,9,10,2,1,-8,-5,10
-11,-15,3,-17,10,3,0,-11
-2,2,15,29,6,6,-6,-16
-1,-11,-6,-8,-10,-5,6,46
11,15,2,10,3,-1,-7,-13
-15,-1,45,-17,-15,-12,-13,-37
-9,-38,-77,-19,-9,-7,-6,-12
8,21,8,14,-1,2,11,13
-9,-49,3,-6,8,-7,5,12
-7,-22,-53,0,0,0,-20,-15
1,5,23,-8,-26,0,-3,-2
1,1,-19,1,2,12,13,9
6,18,49,18,34,-1,1,2
0,26,48,29,43,5,3,-10
1,-44,-60,-29,-50,-15,-7,15
-16,-38,-44,-18,-7,7,-2,-15
5,17,19,-16,-12,-14,1,-6
-1,-7,-52,-14,-8,2,4,20
-5,-38,-58,16,16,1,2,-13
4,59,127,12,1,1,-7,0
0,-3,-20,-12,-8,-13,-3,3
-4,-40,-60,-4,-4,-3,-6,-5
-17,-64,-84,-16,-6,-4,0,-1
2,24,21,7,1,4,-1,-8
1,-4,14,-9,-8,-15,-7,0
4,-8,-14,-10,-1,6,0,3
1,-7,-35,-8,-12,-6,0,-1
3,28,110,23,18,19,7,8
5,8,14,38,19,-15,-2,2
-1,-23,-79,-1,17,1,7,11
-6,-22,1,-8,-5,-1,-8,5
-5,0,-33,-27,-31,0,0,-3
-5,1,-8,3,-6,-17,-6,-2
0,-15,-63,-32,-15,-1,-2,3
-3,27,60,-11,-16,0,-5,-15
1,-18,-61,6,10,8,6,9
-4,0,10,6,14,-14,-4,-2
10,35,77,14,-1,4,-2,-8
-15,-47,-88,-33,-15,-5,-3,-10
9,22,62,17,8,9,1,4
-4,10,-4,-10,-10,-24,-9,-4
4,-14,-13,5,5,8,8,15
4,10,-8,-4,2,1,1,2
-5,6,21,-5,-4,-1,-4,-1
1,-11,-21,-25,-38,-20,-8,3
1,6,27,38,42,13,2,-3
-8,-43,-65,-15,34,9,2,10
0,16,23,34,-3,5,-1,-7
-2,-5,10,-34,-28,-23,-6,5
1,-2,-4,0,2,2,-1,-3
-4,1,1,5,9,1,5,-4
-1,-12,0,-14,-41,-5,-7,-6
4,-10,-5,13,34,-14,-5,6
-2,-14,-19,-8,-21,2,1,-4
0,4,12,-1,3,3,3,-1
1,16,13,-4,-9,5,5,-1
6,27,34,11,17,-17,-4,1
-9,-42,-87,-5,-3,-1,-4,-5
1,11,52,-11,-9,-2,1,-5
-1,16,23,-4,-8,3,2,-2
5,4,15,-8,-6,-16,-3,8
-3,-26,-17,-4,-6,4,-3,-7
-1,4,-12,-29,-18,-6,0,-3
0,21,19,17,-6,13,6,3
-6,-39,-59,42,71,-9,-5,-5
-8,-22,-24,-21,-23,-5,-6,5
3,12,54,-19,-28,-3,-2,1
0,4,-6,4,8,5,-1,-5
-1,-7,-15,-12,-5,-18,-5,-1
1,-2,-17,-1,-1,-1,0,0
-3,5,18,-8,-7,3,-2,-2
-1,4,-36,-6,-20,4,0,6
1,0,0,29,31,-15,-3,1
1,-20,10,-14,9,4,-3,-1
-3,-6,14,-16,-10,-5,-1,-1
-3,10,23,9,-1,7,2,-1
4,-3,-23,57,33,-9,1,7
3,-2,5,-17,-17,0,0,0
-8,-12,-44,-24,-12,-6,-3,-5
-1,7,20,-20,-27,3,0,-2
3,-2,-10,10,20,-14,-3,2
-1,-7,18,11,23,9,-1,-1
6,23,33,-7,-14,-2,-1,2
-3,4,65,-8,-18,-2,-1,-5
-8,-19,-41,-15,-15,-17,-6,-4
0,3,16,-10,-5,0,-3,-5
-1,4,26,9,31,9,1,4
2,9,20,42,9,7,6,0
0,-8,-8,-11,-3,-16,-6,1
3,1,-3,3,23,2,-1,-2
-2,4,-8,-45,-53,-2,-1,0
-5,3,3,33,19,9,3,-5
0,-8,-16,-8,4,-21,-6,-2
1,5,24,-19,-2,0,-4,3
5,4,9,16,8,5,1,0
-5,0,3,-6,-6,0,2,0
1,-21,-43,-29,-29,-19,-8,5
-7,-2,-3,12,1,2,-1,-3
0,12,32,2,22,7,-1,-2
-2,7,-14,11,-9,4,2,-2
3,3,-8,19,11,-18,-4,3
-2,-11,-9,-27,-16,0,-2,-8
2,3,11,13,9,7,2,18
-4,10,6,12,3,5,2,-28
1,-7,-15,-14,-10,-19,-6,-3
0,1,-9,-7,-1,5,-4,1
-2,-1,12,-16,-30,2,-3,-4
-1,2,-27,18,32,9,9,1
0,-13,-26,-4,18,-14,-4,-1
-4,6,6,-20,-30,-4,-4,-3
-4,-2,6,12,11,0,0,-6
-4,8,18,6,-13,5,-1,-3
2,-4,-14,-5,24,-19,-3,2
1,-1,-17,-6,-20,-2,-3,-1
-1,4,26,-4,-8,6,1,0
-2,12,25,13,1,3,1,-1
2,-7,-27,-3,7,-15,-8,-1
0,-5,14,-17,-16,1,-3,2
-5,-19,-79,-14,-13,4,-2,-2
-1,8,12,15,2,3,3,-1
4,4,8,5,8,-14,-5,-1
-4,0,-8,-12,-28,-4,-10,1
3,10,32,2,-7,3,1,-3
-4,-8,-51,-2,44,6,4,7
2,10,17,-14,-11,-19,-8,-15
6,-16,21,23,-36,-1,4,31
-5,-13,-22,6,49,4,-1,-4
0,13,8,-17,-54,1,4,0
2,-3,0,19,50,-15,-7,-2
-3,0,19,-19,-29,1,2,-1
1,6,16,-2,9,1,1,-3
0,1,-13,-8,-13,-4,4,6
8,13,-1,-3,-3,-12,-2,4
1,-9,-7,17,10,12,-4,1
2,9,13,-10,11,8,3,0
-3,-5,-6,18,-5,-3,1,-2
1,9,40,-26,-12,-20,-6,0
-6,-14,-25,-14,0,10,0,-1
2,-1,-17,35,28,10,3,3
2,13,48,10,7,0,2,0
-1,-8,-22,-15,-11,-17,-5,2
1,-2,3,-34,-36,4,-3,-2
7,23,19,45,48,10,4,2
0,4,12,10,5,-2,1,13
4,-5,-12,-20,-19,-16,-1,-2
4,-3,-7,-10,-6,1,2,1
-4,5,17,8,1,10,2,1
-5,2,13,0,-4,-1,-2,-3
3,-6,-24,-12,2,-16,-3,3
0,-11,5,3,-3,1,-3,-2
-3,2,11,-9,-11,7,2,-3
-1,2,-4,36,15,0,5,-1
-1,-7,-26,-20,10,-14,-7,-7
0,-3,-5,10,-8,3,4,5
1,10,20,-3,-9,10,-1,-2
-4,4,5,-20,-10,-5,-1,-4
1,-16,-55,-11,-3,-15,-4,2
-1,5,5,17,3,7,-1,-3
0,3,8,16,21,10,2,-3
-9,-27,-37,-29,-17,-10,-4,-6
3,-1,-1,-11,-53,-21,-7,-3
-1,-7,-7,7,49,11,1,1
3,0,7,17,-5,8,3,4
-3,4,4,-13,-20,-11,-1,-4
-1,-11,-14,-25,-15,-15,-7,-2
-3,-3,7,3,7,2,0,-1
-2,-3,-4,3,-24,4,-1,-1
1,10,18,17,66,8,3,-1
5,-1,-11,26,-13,-15,-4,5
1,-6,-5,-37,-18,-1,-3,-5
2,5,7,6,-12,10,3,3
-2,0,-6,7,20,0,2,-1
-1,0,0,-21,-23,-10,-4,2
0,-1,-3,5,26,1,-2,-2
1,4,12,11,-3,15,0,0
1,4,1,-4,-8,-5,2,-1
1,-8,-10,-10,-9,-13,-6,0
0,7,18,-3,8,2,1,0
2,-8,-47,6,-15,8,3,-2
-4,1,16,-12,12,-4,-1,-3
5,-1,-10,11,-28,-15,-4,0
-4,-4,2,2,39,8,-2,-1
2,5,8,-8,-26,13,3,-1
2,10,6,17,-8,-3,-2,-1
-1,-11,-34,-5,17,-8,-4,1
3,7,23,4,3,5,4,-2
-5,1,4,-3,-6,10,-1,2
-5,-2,-11,-32,-40,-9,-4,0
-2,-3,8,0,20,-10,-4,-1
5,8,34,49,38,12,1,2
0,-5,-27,-14,-8,7,0,-1
-5,-6,-7,-7,-14,-10,0,-3
0,-10,-10,-14,-7,-9,-4,-2
-1,-1,-2,1,-10,-2,-2,-6
-1,5,7,12,11,11,4,-1
0,7,8,4,5,0,3,3
-1,-10,-10,-7,-1,-7,-6,0
3,-6,-15,-6,-3,5,1,1
0,6,18,5,-4,6,3,1
-5,12,34,-1,-3,-3,2,-3
-2,-11,-16,-21,-16,-11,-5,-1
-4,-14,-6,25,21,-1,-4,-2
1,9,10,-2,3,12,3,0
-4,3,15,-1,-5,-6,1,-1
0,-9,-14,-20,-12,-12,-3,2
1,3,28,-6,-9,7,1,-1
-3,-7,-41,27,23,11,1,-3
0,-2,-9,4,9,-2,1,0
1,-8,5,-16,-17,-12,-5,-3
1,0,5,-1,-4,4,1,4
-7,-23,-44,-8,-8,5,1,-6
0,6,17,8,6,-3,2,-1
5,-8,-21,-27,-16,-11,-4,1
0,0,-16,7,-15,3,1,1
-1,8,20,37,45,13,4,-1
-3,-2,-20,-2,7,3,1,-4
7,12,1,-58,-70,-19,-6,2
-3,-5,6,66,67,8,0,-4
3,8,7,8,31,20,5,-3
0,5,-3,-32,-66,-12,-5,-1
-2,-7,-11,-6,35,-1,-6,-1
-2,-9,-10,6,-11,9,-1,-2
-1,2,17,-6,-8,9,3,-4
-6,-5,-21,-31,-24,-13,-5,-3
1,0,5,6,-14,-10,-5,0
0,10,-17,26,44,8,-1,-5
5,-1,14,18,1,10,6,13
-4,-1,5,-7,-2,-7,-2,-11
2,-2,-24,-45,-34,-14,-12,-1
-2,-1,12,43,16,5,2,4
1,6,5,1,16,16,9,6
-2,0,6,-7,-11,-10,-4,0
3,-3,-6,-16,-13,-9,-7,-2
0,7,3,-15,-25,-1,-1,-1
-18,-28,0,9,33,14,-1,-7
-2,3,12,11,2,-4,0,0
6,2,-22,-5,-5,0,-1,2
2,-10,-3,7,15,5,0,-1
-1,8,15,2,11,10,4,-1
1,10,4,-9,-29,-10,-2,-5
2,-3,4,-13,24,-10,-5,1
-2,-5,-17,-12,-26,6,-4,-5
-2,5,11,19,15,17,2,-1
0,14,25,8,17,-6,1,0
4,-7,-10,-5,-7,-8,-2,1
-4,-1,-2,-11,13,4,-1,-2
2,3,-2,1,-7,13,1,-1
-7,0,-2,-4,-9,-7,-3,-4
-2,-8,-27,-31,-15,-8,-7,-1
1,-3,4,21,7,4,2,-3
4,15,11,24,36,20,8,1
1,-4,2,-6,-14,-10,-1,-1
4,5,28,-3,-10,-6,-5,-1
-1,-17,-79,-15,3,7,-5,-6
1,9,22,2,-5,14,2,0
-1,8,13,23,13,-7,1,1
1,-7,-3,-8,-9,-8,-10,3
-2,0,-3,-50,-45,1,1,-1
2,6,13,87,79,24,7,-1
0,1,1,-23,-13,-10,-2,-2
1,-7,-10,-15,7,-7,-3,2
-5,-4,-6,-17,-48,-3,-4,0
-2,9,34,13,48,17,4,-3
-3,-8,-28,-2,-27,-8,-2,1
3,-5,-7,1,15,-8,-6,0
0,5,11,-20,-11,2,0,-3
-4,-4,-4,-8,-12,15,6,-1
-4,1,10,38,26,-7,-6,0
6,0,13,-13,-3,-4,0,4
-3,-9,-2,-21,-25,2,2,-5
-4,9,19,7,19,23,7,-1
-5,2,1,9,2,-11,1,0
0,-7,-8,-8,-6,-9,-3,2
-1,-1,0,4,-1,3,-3,-1
1,9,6,-7,-3,11,0,-1
-3,-9,-4,-14,-28,-10,-5,0
1,-2,3,32,29,-4,-5,2
0,4,-2,4,11,6,3,-3
-3,4,4,-35,-40,8,3,-2
-2,0,3,41,34,-9,-3,-2
3,-5,-6,-3,5,-3,-3,0
-5,4,1,-36,-18,-1,-5,-2
-3,6,22,24,-6,14,3,-5
3,12,2,-1,1,-11,-4,0
4,-1,-1,-2,8,-3,-2,0
-7,-10,-13,5,8,5,1,-2
-24,-3,22,-2,-13,7,0,-11
4,-7,-38,-3,-10,-10,-2,0
3,3,27,-5,1,-1,-2,-1
4,1,5,4,12,3,3,1
-3,2,9,-12,-25,11,3,0
-1,-2,-3,13,12,-12,-7,0
-3,4,-2,-1,-7,-1,1,3
4,11,2,-6,39,10,4,3
1,7,17,16,-1,17,8,0
18,0,-2,-8,-14,-12,12,17
1,6,-9,-6,-6,-5,-36,-15
-19,5,6,-4,-7,2,0,-15
-35,-60,-34,-5,3,10,2,-8
0,-30,-5,7,7,-8,4,-1
-3,-13,4,-3,1,-1,-2,2
9,5,6,-6,-8,6,1,4
16,15,29,4,0,15,3,3
0,6,4,-10,-15,-13,-1,4
36,24,23,15,15,10,5,13
-44,-21,-28,8,19,7,3,18
20,4,20,2,3,17,4,-54
-28,19,-3,-1,-1,-1,0,-5
-39,-7,-9,-9,-10,-6,-32,-20
-5,-9,-5,-25,-17,-2,-12,-9
4,4,12,23,-16,20,13,1
35,20,15,21,68,-10,17,20
19,1,-1,-7,-21,0,-1,5
23,3,-28,9,2,3,0,-5
19,5,6,-13,-22,11,6,2
-116,-36,-22,-6,8,-27,-24,-32
-31,-3,-7,-12,-8,1,-4,-3
35,6,-3,-10,-2,10,15,20
19,26,23,17,-2,10,0,2
30,4,-16,29,30,-2,12,18
-10,2,-15,-25,-10,1,2,-2
-26,-1,2,9,3,6,9,-6
-12,4,20,-1,-2,10,-13,-5
64,-14,-26,-19,2,-4,14,26
-80,-32,-22,-3,-9,-9,-50,-51
-27,-13,-1,-4,-3,-3,-5,-16
-24,21,20,3,-11,16,13,0
39,1,-23,9,19,-12,25,28
40,4,-7,-40,-54,-10,-19,15
14,7,6,18,56,9,-14,-16
24,13,19,43,33,24,14,5
17,8,19,3,-6,-11,16,10
-66,-29,-29,-43,-44,-22,-54,-11
-33,-17,-16,-8,-2,0,-8,-25
17,6,15,-1,-2,10,18,4
-6,-1,-9,0,-7,-11,3,3
12,-13,-14,-16,-6,-8,-1,4
-25,-14,-7,11,-7,-7,-18,-32
2,2,18,29,28,26,21,21
-3,8,4,1,-6,-11,16,8
32,8,24,-30,-28,-5,-14,16
-32,-27,-32,65,60,8,-86,-57
20,13,22,-5,-7,10,16,-6
-18,-5,-21,-7,-12,-14,9,4
83,30,25,22,6,10,12,22
-38,-25,-12,-30,-10,-11,24,18
-6,13,45,37,-7,7,-29,-51
10,-16,-77,-17,33,-2,-6,-2
11,-4,6,17,-7,-4,-78,-4
-28,3,35,16,13,1,-7,-1
88,5,-30,-1,16,14,33,27
-119,-20,-13,-8,-3,-5,21,17
-24,-21,-22,-24,-14,-4,2,-41
61,11,13,-28,-27,-9,-14,2
-23,26,37,4,0,10,18,6
86,5,-39,6,-4,-13,-22,13
-61,-2,12,-1,0,1,-1,-10
-62,-17,4,-9,-9,-2,4,-6
60,24,31,2,-1,2,5,26
-50,-16,-11,-1,-2,-6,10,11
-11,-25,-41,-13,-1,-1,1,-15
41,22,0,-17,-6,-3,0,10
-54,11,38,24,-12,-6,21,-4
63,2,-30,26,36,22,89,28
-75,-16,-2,-19,-8,-12,45,-18
-22,21,41,-23,-23,-12,-63,-16
45,4,0,9,2,-9,-37,-6
-87,-26,-17,6,2,-3,17,-6
4,17,8,-25,-5,5,-8,0
68,27,7,37,7,6,-31,33
-43,13,24,8,-4,-40,-128,-43
41,6,-18,-7,-1,1,12,29
-52,2,6,-11,-3,1,6,-19
11,-1,15,-13,-24,4,-1,26
17,29,68,77,60,3,6,10
24,17,4,2,-1,14,-14,24
-24,4,15,70,53,25,23,5
114,26,21,-13,-30,0,-4,24
-47,-24,-23,-29,-23,-11,-21,-26
-4,-12,-29,14,11,0,21,13
-13,-14,-12,-15,-25,-2,-16,-38
67,13,28,23,9,-6,-10,-3
-44,12,-13,-23,5,-4,44,1
6,-24,-6,20,-27,-14,-61,-31
-59,4,-23,-30,0,4,56,46
-11,-34,-34,-23,-15,-5,24,6
29,9,3,-9,-14,-18,-75,-32
13,12,-5,-11,-4,2,27,15
-115,-19,17,-16,-11,-20,-128,-72
54,5,-3,-19,12,-6,-12,1
-74,-21,1,3,-8,2,55,31
-13,-7,3,68,40,13,-2,-16
31,-17,-7,-19,-18,-7,-2,26
-21,-4,5,-31,-14,-6,39,-26
9,9,21,7,-7,-7,-3,-10
79,-3,-20,29,31,12,-5,19
-26,-22,-15,-24,-18,-6,-10,-8
30,5,8,20,12,17,29,19
-54,12,-3,-9,19,-10,-16,-10
25,9,-11,-3,-37,2,12,15
-38,1,3,-3,14,14,11,4
-24,-16,-16,-22,-22,-14,0,-24
31,10,8,-12,-17,-9,20,4
14,-3,-12,-23,-9,12,-1,4
2,-3,1,-2,-5,-4,-3,1
1,2,2,14,13,-6,-4,0
-7,9,21,5,-1,-5,4,-4
-2,2,-9,5,-3,1,-2,2
-3,-12,-14,-12,-11,7,-2,-2
-3,2,13,-5,-9,-3,1,-1
-3,8,16,34,36,-16,1,-4
7,-1,-7,-25,-15,15,-4,2
61,1,0,2,-7,-13,-9,-5
-67,-18,-2,-29,-28,-7,-22,-18
-29,-10,-4,-4,-19,-19,16,-14
20,0,-8,-17,-10,-2,-40,-9
7,4,5,-6,1,-26,0,9
1,1,-3,-7,-7,21,5,-7
1,9,12,5,-17,-14,5,-4
0,-3,-8,5,27,12,-7,1
-4,-10,-8,1,-6,1,4,-8
0,2,6,5,0,-5,0,0
-5,7,8,7,-7,-9,1,-6
1,-1,-8,-21,-14,10,7,7
6,-2,-5,-17,-5,-4,-6,-5
-15,-16,-3,14,13,0,0,-1
4,25,16,31,14,-11,4,-1
-3,-12,-22,-11,1,6,-7,0
5,3,-2,-32,-39,-2,-2,1
-1,-8,4,0,27,1,-2,-5
2,7,23,32,-3,-4,5,2
1,-9,-22,-29,-8,2,-8,6
-3,-13,-4,-15,-17,0,-6,-10
0,5,4,16,-3,-6,-5,-4
-2,10,13,14,37,21,14,0
8,-8,-4,-15,-9,-3,-5,3
5,-2,13,0,-6,-2,-4,-6
-5,-8,4,-4,-5,-1,-3,-7
-1,6,-17,-9,-11,1,7,9
3,8,29,-7,-33,-5,-6,-2
2,3,12,16,49,3,-6,-4
0,-7,-30,5,-15,-8,-2,-8
-5,-23,-45,-2,-5,1,5,-1
-4,7,6,-24,-22,-5,-3,15
-2,-11,-29,-12,-5,-1,-2,26
-1,17,31,30,28,-4,-5,-45
8,9,13,3,2,6,-1,-3
-3,3,-74,-39,-25,-15,-8,-5
4,-6,14,10,-1,1,6,11
-2,22,48,17,9,2,-1,-3
7,35,45,10,25,4,13,18
-5,-15,3,-2,-32,-10,-14,-17
-12,-22,-33,3,47,2,-1,-11
8,47,59,-17,-45,-7,-13,-7
-7,-13,-15,7,-6,1,4,-4
-10,-10,-27,-36,-18,-14,-3,-5
-2,-22,34,9,43,8,-3,7
2,14,0,25,0,0,-7,-23
-11,-11,-29,-17,-9,-2,-10,-15
2,-3,22,-14,-11,-11,1,26
3,4,-7,-17,-8,3,2,-7
0,2,13,33,18,0,-2,-5
-11,6,64,-27,-45,-4,-5,-9
1,-38,-54,18,49,-10,-4,-5
-5,-8,28,-34,-48,4,1,7
8,36,48,37,48,7,-1,-2
-8,-8,-18,-18,-6,-2,1,-10
1,-32,-47,5,-20,-16,-6,0
-4,-15,-42,-13,-4,0,-5,-4
-23,-26,-6,-30,-23,-9,-10,-5
3,18,40,0,-2,2,-1,0
0,-3,-20,0,-5,-14,-5,1
5,9,18,2,8,-1,-3,9
-1,5,22,0,-22,-3,4,-7
-3,-36,-57,17,35,7,4,3
-2,-5,-15,-16,-5,-15,-2,-5
8,7,-46,-5,-25,-5,6,41
-4,-5,36,10,-3,2,-4,-29
-1,17,14,38,41,14,6,0
2,2,3,-28,-16,-22,-2,16
-7,-3,13,-22,-33,-10,-6,-7
-8,-28,-28,15,-21,4,-1,-6
3,12,0,14,53,11,3,0
0,-7,-3,-13,-13,-19,-5,7
3,10,8,6,-7,-1,-7,1
-7,-19,-12,-10,-13,-2,0,-7
-10,-9,-24,-20,-18,-1,1,-5
4,-2,-16,-14,0,-15,-3,2
4,5,24,25,9,4,1,3
-2,10,4,-4,-1,9,3,-2
5,20,51,-20,-20,-4,-2,-5
-2,0,16,20,4,-13,-1,5
4,7,13,7,20,3,-1,7
-4,9,16,-19,-37,-1,0,-4
-2,21,28,24,30,0,0,-1
-7,-17,12,-23,-12,-24,-12,1
-3,-3,-8,-10,-13,7,1,-19
0,9,10,13,1,10,0,5
-9,-12,-7,6,15,3,-1,-4
5,8,11,-3,-5,-14,0,5
-7,-23,-43,-28,-24,0,-3,-1
0,7,20,14,11,8,4,2
3,13,7,14,23,6,2,3
0,4,-4,-5,-22,-19,-5,1
1,-8,-12,-12,3,4,3,-4
2,7,8,0,-8,3,1,-1
1,13,21,-7,-7,-1,2,-3
0,-4,-7,11,3,-15,-6,-1
-4,-12,12,-31,-9,-5,0,-1
-2,-2,-16,13,-14,9,1,-2
2,9,7,28,67,9,3,7
4,5,11,15,-25,-12,-5,1
-3,-29,-78,-26,-8,-7,-5,-1
-4,0,14,-12,-20,-2,-1,-5
-1,11,16,-6,-7,0,4,2
-1,-14,-41,-17,2,-16,-4,-4
1,7,23,22,-6,0,-4,11
10,31,41,12,18,9,3,0
-7,-3,8,-9,-9,-2,-2,-3
4,-3,-11,-4,-5,-14,-4,2
-1,-2,-2,2,1,3,-7,-1
1,1,-14,-2,4,9,1,-3
2,9,9,2,-6,-4,0,-3
2,-7,-7,-25,-18,-21,-7,0
-1,0,2,-6,-7,6,0,-3
-3,-4,-22,64,40,17,1,0
5,12,30,27,71,11,9,4
3,-20,-90,-18,-50,-24,-3,3
-2,-5,13,-22,-19,-5,-6,-6
0,6,15,-27,-25,1,-1,-1
-5,15,32,8,-12,-3,3,-1
-1,-19,-69,-7,12,-18,-4,-1
-2,-2,-8,-43,-51,-9,-4,-6
-1,-1,11,30,17,15,3,0
-1,13,51,76,87,13,5,2
2,-6,-36,-46,-48,-23,-6,-1
-2,-4,-4,3,2,-2,-8,2
0,6,15,-7,9,8,0,-4
1,11,17,6,-26,0,5,-3
3,1,14,17,31,-8,-1,3
-7,-36,-64,-25,-21,-2,-5,-3
-1,-1,-6,-6,-4,4,0,2
2,24,66,7,-6,-4,2,-1
1,-11,-8,-16,-7,-14,-5,-1
0,6,6,3,-3,11,1,-1
-1,-5,-6,22,28,11,3,0
2,1,-14,-5,-4,0,2,-3
0,-2,29,-5,-4,-13,-2,2
-5,-9,-9,-7,3,4,-1,1
2,6,8,-5,-23,8,1,-2
2,10,2,12,28,4,7,5
4,-6,-1,-11,28,-6,-7,3
2,-3,2,8,-59,-6,-1,-4
-1,-3,-26,8,40,7,-2,-2
-1,15,69,-5,-9,-1,0,-2
-2,-6,-37,-28,-17,-19,-6,-1
2,17,52,2,-5,5,-1,0
-13,-54,-89,-21,-8,1,-2,-5
0,5,1,20,0,1,-1,-3
3,11,34,-6,7,-8,0,9
-1,-7,-4,-22,-21,4,-2,-2
-3,-1,4,25,41,14,-1,-1
1,11,18,-21,-45,0,1,-4
-5,-12,-25,37,69,-10,-4,2
3,-4,-5,-12,-14,4,2,3
-2,4,7,-17,-41,3,0,-3
-3,1,-10,-6,17,-4,1,-3
3,1,13,-15,-15,-8,-4,2
0,0,3,30,29,9,1,0
2,-4,-43,21,4,7,2,0
0,14,38,-13,-20,-4,0,-1
-3,-44,-84,-25,-10,-9,-4,0
-1,1,-9,-18,-17,-3,-4,-4
0,0,10,-4,-11,12,3,-1
-2,7,23,47,47,-1,0,0
4,-2,1,-28,-20,-8,-1,4
-1,1,7,29,43,4,2,-4
0,0,-2,-19,-33,7,2,-2
-2,-11,-17,-41,-9,-6,-4,0
1,-6,-12,28,-10,-7,-3,1
-2,-3,-10,-2,31,1,0,-2
0,10,6,5,2,13,1,-1
-5,-9,-13,-11,-29,-9,-3,-5
4,17,50,-3,-4,-13,-6,7
-6,-36,-101,-10,9,2,-2,-5
1,2,0,-29,-23,6,1,-2
0,13,21,49,14,-1,3,-1
0,-16,4,-4,15,-9,-2,-2
0,9,24,-6,6,2,1,2
-4,-14,-6,16,-4,8,3,-1
1,11,26,-8,8,4,5,0
2,-6,-14,3,-23,-18,-6,1
-1,-5,-8,-6,12,7,-4,-3
-3,5,20,-4,-26,0,1,-3
-4,-4,-27,-10,33,0,-1,-2
2,-7,-4,7,-16,-13,0,1
-1,-6,0,-35,-39,-4,-4,-4
2,9,18,67,74,23,5,4
-3,4,10,-11,-6,-6,-2,1
-4,-27,-56,-60,-71,-16,-8,-3
0,-11,1,52,82,6,0,-2
7,23,34,-5,-6,11,2,-2
0,-4,-13,-20,-33,-10,0,1
-5,-30,-42,-4,-5,-8,-4,-4
5,18,13,-7,0,0,1,6
-2,-8,-15,19,23,14,5,2
-2,11,21,12,4,-5,1,-6
-4,-26,-30,-28,-20,-16,-7,-7
2,3,2,-9,-9,2,0,-2
-2,-10,-20,-39,-21,9,3,-2
0,7,13,83,68,1,-1,1
5,-5,-3,-35,-26,-8,-4,3
-1,-1,-3,1,-7,-4,1,-4
-3,-3,-21,-25,-55,8,1,-6
-3,7,12,16,62,-5,-3,0
5,2,2,9,6,2,-1,3
-3,-6,1,-9,-8,0,-3,-2
-5,3,2,-15,-24,2,-3,-4
-7,-2,-20,-29,-5,-5,-3,-1
-3,-7,-16,16,-11,-12,-6,-1
3,-1,3,-7,-3,5,4,1
-5,-2,-6,15,28,12,4,-5
-3,7,2,1,-16,-6,-1,-1
4,-1,2,-27,-31,-4,-4,2
-2,-12,-22,52,67,6,2,1
-2,5,-11,-21,-28,10,4,-2
-7,-2,34,-18,-27,-16,-6,-6
-1,-4,-14,-41,-24,-8,-6,-3
1,-1,0,40,21,7,-1,1
-3,-6,1,7,21,11,1,-4
-1,-3,-14,-25,-36,-11,0,-1
0,-3,9,8,14,-3,-1,-3
3,1,0,13,-3,-1,0,0
-1,-5,9,-4,11,12,-1,-2
-4,0,-5,-5,-13,-8,0,-1
2,-7,-14,-19,-19,-8,-4,-3
-3,-2,3,10,5,2,0,-3
0,3,12,18,25,11,6,-3
-2,-3,-33,-49,-44,-11,-2,-1
0,-3,-3,35,30,-1,-2,1
-4,-3,1,28,20,6,-1,-1
-1,3,16,-12,-15,6,2,0
5,24,18,8,12,4,4,5
-3,-17,6,-13,-12,-8,-6,-2
-3,-4,-7,-8,-9,2,-4,-1
-3,7,16,-6,-25,7,1,-4
-1,3,-3,-8,6,-2,1,-1
3,2,22,23,17,-1,2,12
2,0,-9,21,10,7,-3,-6
-5,0,0,1,8,13,0,-2
-4,5,0,-14,-15,-13,-3,-3
0,-10,-14,-16,-10,-8,-2,0
-1,-2,-5,-6,-11,1,-1,-2
-1,7,7,-9,-5,8,2,-5
-2,2,6,11,-20,-7,-2,-4
5,-2,0,14,32,3,-1,3
1,-1,5,-2,44,9,3,-1
-7,2,11,20,-17,4,0,-2
-5,0,-3,-8,-15,-14,-5,-4
0,-5,-14,-41,-25,-12,-7,0
-2,-3,3,4,-26,3,1,-1
-6,3,15,24,34,16,3,-4
1,-6,-31,-14,9,-9,-4,-1
6,1,11,8,-19,-8,-3,3
-5,-16,-13,-15,5,7,0,-3
-8,8,28,9,-6,13,2,-12
6,7,-5,5,13,-13,0,6
3,-4,-3,-23,-37,8,2,2
-1,3,20,36,48,4,2,-3
-13,-7,-16,-13,-10,12,-7,-7
0,-5,-10,5,15,-9,1,10
7,-2,-2,-3,-9,4,-3,4
-7,-7,2,-17,-24,-2,0,-1
-4,5,10,24,15,10,4,-1
7,2,-3,-33,-17,-16,-4,0
-8,-15,-12,-8,-24,2,-5,-1
13,13,-9,38,52,5,0,2
5,13,21,-9,-16,14,9,7
4,1,-10,-6,-5,-10,1,2
-19,-20,-21,-13,-1,-10,-4,-4
-20,-18,-6,-14,-7,-3,-5,-8
-7,8,24,12,4,17,4,3
9,1,-22,-12,-12,-9,0,3
-10,-2,0,-4,20,-1,-6,-3
8,1,-2,25,-7,7,-1,5
-13,-4,-2,-3,17,7,0,-3
15,9,12,-24,-34,-15,-1,8
-57,-9,-19,-20,-10,-6,-12,-19
-15,-23,-13,21,13,4,0,-6
8,19,37,28,35,12,4,-5
0,3,-12,-31,-24,-8,-1,2
12,-8,-16,-10,-41,-13,-12,1
11,2,3,-10,28,6,-1,-7
-27,10,16,16,-2,19,5,5
21,6,7,-13,-8,-12,-5,-22
8,5,-7,17,3,-3,-2,3
4,-22,-4,-5,7,4,4,8
-45,1,2,-20,-48,6,-4,-25
-50,-12,-7,17,46,-12,-6,-17
22,18,10,28,26,1,0,15
16,-11,-11,-34,-25,5,11,11
-3,8,10,33,5,11,-1,-11
8,0,-2,-18,2,-11,-1,3
-10,-5,-3,-2,-11,-1,-2,-1
-12,-13,-37,7,25,9,3,1
-3,7,15,13,-39,11,2,-5
22,6,2,-5,49,-6,2,11
-26,-11,-15,-10,-18,-3,-9,-6
4,-4,21,5,-7,4,4,-2
23,9,0,-7,-11,14,4,2
-10,-11,-11,10,33,-12,-6,-4
-2,7,2,-13,5,0,3,6
-1,-17,-6,4,-17,2,-2,-4
-3,3,22,20,19,10,5,2
-9,-1,-7,-23,-39,-19,-4,-7
18,-20,-8,4,12,-1,-8,-3
-11,20,16,10,15,7,5,-1
32,15,15,5,-4,14,7,12
-5,-3,-6,-29,-21,-14,-1,-3
4,-14,-16,15,12,0,-5,-4
