1,2,3,4,5,6,7,8,9,10,11,12,13,14,15,16,17,Average
10.613670430157514,9.962429422585638,56.795246279948465,63.93864246291127,9.891915891272024,7.127411872482185,6.685805860178712,5.709640969448079,112.65,99.25,3225.7000000000003,4088.15,97.85000000000001,50.800000000000004,44.7,32.6,1,41.35428165982418
22.848413511664216,24.919871588754223,85.75196790744805,95.65328013194319,29.42957695924289,17.00441119239358,13.464768843169942,11.547727049077666,522.0500000000001,621.0,7353.400000000001,9149.550000000001,866.1,289.15000000000003,181.3,133.35,1,71.27360709369826
19.35329429322047,33.64446462644338,94.78422864590922,107.38249391777042,29.962476533157268,15.496773857806662,10.478549517943788,13.019216566291536,374.55,1131.95,8984.050000000001,11531.0,897.75,240.15,109.80000000000001,169.5,1,90.26809827667864
23.268003782017914,41.98035254735243,98.5804240201877,106.94531312778508,33.97866977973093,18.297540818372287,12.915107432770352,14.375326083258077,541.4,1762.3500000000001,9718.1,11437.300000000001,1154.55,334.8,166.8,206.65,1,96.68232633304847
10.227414140436476,22.777181564012697,74.30679645900501,71.26534922386895,13.67845020461017,8.645808232895291,7.035623639735144,5.282045058497703,104.60000000000001,518.8000000000001,5521.5,5078.75,187.10000000000002,74.75,49.5,27.900000000000002,1,86.44361023959635
4.455333881989093,4.8218253804964775,23.130067012440755,17.615334229017627,6.176568626672903,4.318564576337836,3.5425979167836705,3.7349698793966195,19.85,23.25,535.0,310.3,38.15,18.650000000000002,12.55,13.950000000000001,1,21.42086934089214
4.54972526643093,8.396427811873332,50.302584426647506,44.286566812070674,6.553624951124378,5.818075283115543,4.080441152620633,4.8270073544588685,20.700000000000003,70.5,2530.3500000000004,1961.3000000000002,42.95,33.85,16.650000000000002,23.3,1,36.71632571954413
13.298496155580901,22.177691493931466,67.44701624238095,75.6253925609646,15.021651041080672,10.523782589924593,7.664854858377946,9.211405973031479,176.85000000000002,491.85,4549.1,5719.200000000001,225.65,110.75,58.75,84.85000000000001,1,58.874800334514234
21.17073451725282,38.93841291064648,73.53706548401289,102.54633099238607,24.774987386475093,24.21776207662467,36.138621999185304,13.005767951182275,448.20000000000005,1516.2,5407.700000000001,10515.75,613.8000000000001,586.5,1306.0,169.15,1,70.49204086319692
33.952908564657605,57.00175435896688,95.93800081302507,112.21430390106245,39.7215306855111,31.34246320888006,37.23103544087916,18.555322686496186,1152.8,3249.2000000000003,9204.1,12592.050000000001,1577.8000000000002,982.35,1386.15,344.3,1,84.73753314851898
26.773120849090418,51.24256043563788,74.23543628214223,97.78164449425056,34.88911004883902,26.198282386446635,22.78815481779953,13.680277774957641,716.8000000000001,2625.8,5510.900000000001,9561.25,1217.25,686.35,519.3000000000001,187.15,1,85.08671854758364
12.359207094308275,25.053941805632103,47.636120748860314,60.20921856327318,13.44804818551748,8.366600265340756,7.197221686178632,7.134423592694787,152.75,627.7,2269.2000000000003,3625.15,180.85000000000002,70.0,51.800000000000004,50.900000000000006,1,60.93577851550127
3.5355339059327378,6.2008063991709985,32.1846236578898,16.51817181167456,5.848076606885378,4.147288270665544,2.479919353527449,2.4186773244895647,12.5,38.45,1035.8500000000001,272.85,34.2,17.2,6.15,5.8500000000000005,1,25.90811541296185
9.327379053088816,13.179529581893277,50.40684477330435,38.60569906114899,11.41052146047673,8.888194417315589,5.300943312279429,7.893034904268446,87.0,173.70000000000002,2540.8500000000004,1490.4,130.20000000000002,79.0,28.1,62.300000000000004,1,29.043995260586478
23.149514033776175,27.879203718901298,77.95800151363554,98.64076236526155,30.136356780473648,18.444511378727277,12.621410380777577,12.006248373242993,535.9,777.25,6077.450000000001,9730.0,908.2,340.20000000000005,159.3,144.15,1,64.18242314346995
34.84465525729879,47.51841748206689,106.31627344861181,108.65288767446542,49.18333050943175,28.01071223657121,19.701522783785013,17.042593699317013,1214.15,2258.0,11303.150000000001,11805.45,2419.0,784.6,388.15000000000003,290.45,1,92.13713748112367
38.53310265213535,67.93673527628481,93.0499865663612,110.64379783792673,49.60594722409804,32.31872522238462,20.0,20.615528128088304,1484.8000000000002,4615.400000000001,8658.300000000001,12242.050000000001,2460.75,1044.5,400.0,425.0,1,99.68313000748651
19.971229306179428,41.06580085667392,87.6404586934596,100.17908963451406,31.330496325465386,15.480633061990714,11.569356075426152,9.270922284217466,398.85,1686.4,7680.85,10035.85,981.6,239.65,133.85,85.95,1,90.34522262991041
10.23474474522936,20.161845153655953,51.28986254612114,47.608297596112386,13.2664991614216,9.736529155710468,5.58121850495033,7.605918747922567,104.75,406.5,2630.65,2266.55,176.0,94.80000000000001,31.150000000000002,57.85,1,69.46516061979037
4.743416490252569,3.866522985836241,40.274681873355625,31.548375552474962,4.8373546489791295,9.433981132056603,12.253570908106747,3.6606010435446255,22.5,14.950000000000001,1622.0500000000002,995.3000000000001,23.400000000000002,89.0,150.15,13.4,1,29.32972909210293
5.495452665613635,9.851395840184273,42.41285182583223,47.39567490816013,8.0,7.0710678118654755,16.284962388657824,4.560701700396552,30.200000000000003,97.05000000000001,1798.8500000000001,2246.35,64.0,50.0,265.2,20.8,1,41.34376684959393
16.211107303327555,29.053399112668384,72.69319087782569,71.26184112131821,22.249719099350447,15.424007261409079,12.792575972023775,9.39946807005588,262.8,844.1,5284.3,5078.25,495.05,237.9,163.65,88.35000000000001,1,57.55302135182896
19.013153341831543,36.94387635319283,78.41842895646406,111.35461373468097,38.560990651174926,20.403431084011338,24.939927826679853,13.16054710108968,361.5,1364.8500000000001,6149.450000000001,12399.85,1486.95,416.3,622.0,173.20000000000002,1,75.55580991714487
17.82133552795637,26.679580206592455,76.52973278406243,92.7992456865895,34.37731810365666,18.757665099899828,11.160197130875423,11.76860229593982,317.6,711.8000000000001,5856.8,8611.7,1181.8,351.85,124.55000000000001,138.5,1,77.47408087026324
7.513321502504734,16.81071087134628,49.89288526433403,58.67282164682384,10.94988584415381,8.697700845625814,6.946221994724902,5.60357029044876,56.45,282.6,2489.3,3442.5,119.9,75.65,48.25,31.400000000000002,1,63.21130902419823
1.9493588689617927,2.6739483914241875,24.283739415501888,9.16515138991168,5.486346689738081,4.147288270665544,2.3130067012440754,2.0371548787463363,3.8000000000000003,7.15,589.7,84.0,30.1,17.2,5.3500000000000005,4.15,1,14.756731080749521
10.988630487917955,13.525901079040908,55.3226897393827,59.34938921336933,10.464224768228174,6.387487769068525,5.2105661880452105,9.362157870918436,120.75,182.95000000000002,3060.6000000000004,3522.3500000000004,109.5,40.800000000000004,27.150000000000002,87.65,1,39.80321457744229
8.255301327026167,12.539936203984453,42.676105726741284,58.55595614452897,9.505261700763425,5.941380311005179,4.588027898781785,8.935882720806042,68.15,157.25,1821.25,3428.8,90.35000000000001,35.300000000000004,21.05,79.85000000000001,1,48.99939773306199
24.340295807569802,40.527768258318886,83.63133384085178,101.88841936157417,22.434348664492134,16.69431040804022,12.31868499475492,14.505171491574997,592.45,1642.5,6994.200000000001,10381.25,503.3,278.7,151.75,210.4,1,63.15371978379653
28.45786358811919,44.67661580737735,95.29874081014923,107.62062999258089,29.937434759845406,22.100904958847273,15.26597523907333,15.650878569588354,809.85,1996.0,9081.85,11582.2,896.25,488.45000000000005,233.05,244.95000000000002,1,89.4650373255005
26.93417902962702,44.60605340085581,86.25862275738002,93.80964769148214,22.796929617823537,19.099738218101315,14.921461054467823,15.891821796131493,725.45,1989.7,7440.55,8800.25,519.7,364.8,222.65,252.55,1,90.77868178376463
7.832624081366347,15.53061492665374,44.893763486702696,49.56359551122174,11.939430472179149,7.231873892705818,4.934571916590131,5.291502622129181,61.35,241.20000000000002,2015.45,2456.55,142.55,52.300000000000004,24.35,28.0,1,65.57619312204136
4.944694126030447,6.877499545619759,45.56314299957807,41.13696634415329,13.347284367990367,9.060905032059436,4.909175083453431,3.3466401061363023,24.450000000000003,47.300000000000004,2076.0,1692.25,178.15,82.10000000000001,24.1,11.200000000000001,1,27.13473127172481
7.269800547470337,8.803408430829505,30.27540255719154,30.94107302599572,12.678722333105966,8.952653238007155,4.5934736311423405,3.866522985836241,52.85,77.5,916.6,957.35,160.75,80.15,21.1,14.950000000000001,1,37.919272778384794
13.858210562695316,23.448880570295888,58.14206738670375,73.74211822289891,17.24963767735427,10.653637876331258,8.23407554009556,9.200543462209176,192.05,549.85,3380.5,5437.900000000001,297.55,113.5,67.8,84.65,1,44.208734971947635
22.74642829105264,46.484943799041,94.58144638352704,101.25339500480959,28.033908040086025,15.17234326002414,9.790301323248432,11.293803610830144,517.4,2160.85,8945.65,10252.25,785.9000000000001,230.20000000000002,95.85000000000001,127.55000000000001,1,76.36175688511538
23.66854452643846,45.754234776684875,87.37791482977835,104.58656701508086,34.869040709488985,22.72993620756556,11.91217864204529,10.239628899525608,560.2,2093.4500000000003,7634.900000000001,10938.35,1215.8500000000001,516.65,141.9,104.85000000000001,1,90.97968060665268
12.853015210447703,30.249793387724154,54.40955798386897,67.17961000184506,16.48332490731163,9.249324299644812,6.367888189973187,6.734240862933253,165.20000000000002,915.0500000000001,2960.4,4513.1,271.7,85.55000000000001,40.550000000000004,45.35,1,70.89373640682365
4.8373546489791295,10.15135458941318,28.903287010303863,21.743964679883014,6.910137480542627,5.079370039680118,3.7682887362833544,3.427827300200522,23.400000000000002,103.05000000000001,835.4000000000001,472.8,47.75,25.8,14.200000000000001,11.75,1,16.584716405922073
8.851553535961921,10.961295543867067,31.7088315773382,29.549111661774198,11.69829047339824,8.031189202104505,6.099180272790763,5.044799302251775,78.35000000000001,120.15,1005.45,873.1500000000001,136.85,64.5,37.2,25.450000000000003,1,24.494438936786228
12.567816039392046,16.78541033159452,53.769880044500745,57.40644563113101,16.129166128476697,11.99374837154757,7.842193570679061,7.26636084983398,157.95000000000002,281.75,2891.2000000000003,3295.5,260.15000000000003,143.85,61.5,52.800000000000004,1,42.73935581091946
9.939818911831342,15.88238017426859,50.430149712250504,75.64324160161303,14.724129855444769,9.6850400102426,5.705260730238365,4.759201613716317,98.80000000000001,252.25,2543.2000000000003,5721.900000000001,216.8,93.80000000000001,32.550000000000004,22.650000000000002,1,52.10001487837561
25.937424698685874,39.653499215075584,81.25084614944019,87.20149081294424,28.678389076097005,20.355588913121625,13.912224840046253,14.715637940639883,672.75,1572.4,6601.700000000001,7604.1,822.45,414.35,193.55,216.55,1,65.84049793084534
31.139203586476004,57.19965034858168,97.95483653194465,111.65258617694441,45.841575016572015,25.923927171630456,16.595180023127195,17.165372119473552,969.6500000000001,3271.8,9595.15,12466.300000000001,2101.4500000000003,672.0500000000001,275.40000000000003,294.65000000000003,1,89.60284134069241
17.962460855907242,32.668792447839266,86.14522621712709,96.28239714506489,24.815317850069942,16.948451256678293,11.382003338604326,10.765686229869418,322.65000000000003,1067.25,7421.0,9270.300000000001,615.8000000000001,287.25,129.55,115.9,1,92.05003137453586
7.26636084983398,11.77285012220915,45.96357253303968,34.195028878478816,8.5,6.711929677819934,5.665686189686118,4.753945729601885,52.800000000000004,138.6,2112.65,1169.3,72.25,45.050000000000004,32.1,22.6,1,66.05439937508338
3.5777087639996634,5.366563145999495,37.980916260669645,23.057536728800844,6.06630035524124,3.1622776601683795,2.3874672772626644,2.819574435974337,12.8,28.8,1442.5500000000002,531.65,36.800000000000004,10.0,5.7,7.95,1,23.629962414199632
3.8144462245521304,6.652067347825035,33.50596961736819,22.043139522309428,7.483314773547883,4.05585995813465,2.7658633371878665,2.3979157616563596,14.55,44.25,1122.65,485.90000000000003,56.0,16.45,7.65,5.75,1,35.743442939018905
5.974947698515862,10.786565718522276,32.96892476256998,24.569289774024806,7.158910531638177,5.852349955359813,3.456877203488721,3.427827300200522,35.7,116.35000000000001,1086.95,603.65,51.25,34.25,11.950000000000001,11.75,1,33.237447189969075
12.340988615179905,29.911536236041105,65.06996234822947,90.53452380169678,20.06987792688336,9.6850400102426,5.6524331044250316,8.077747210701755,152.3,894.7,4234.1,8196.5,402.8,93.80000000000001,31.950000000000003,65.25,1,49.01944355539972
38.63159328839544,59.18487982584741,94.53782311858042,91.0346088034655,41.48312910087666,27.108116865617944,29.82700119019678,19.467922333931785,1492.4,3502.8500000000004,8937.4,8287.300000000001,1720.8500000000001,734.85,889.6500000000001,379.0,1,79.80389273340494
24.403893132039403,41.569219381653056,73.70142468093816,88.4516817251091,22.915060549778175,14.48792600754159,13.94094688319269,11.755849607748475,595.5500000000001,1728.0,5431.900000000001,7823.700000000001,525.1,209.9,194.35000000000002,138.20000000000002,1,84.11962389975929
14.314328485821472,25.154522456210533,67.02275732913411,74.01722772436158,18.972348299564818,11.054410884348384,7.864477096412704,7.8390050389064045,204.9,632.75,4492.05,5478.55,359.95000000000005,122.2,61.85,61.45,1,70.36209100503612
5.477225575051661,7.956129712366434,38.75499967746097,42.5376303994475,9.848857801796104,5.830951894845301,5.172040216394301,4.104875150354759,30.0,63.300000000000004,1501.95,1809.45,97.0,34.0,26.75,16.85,1,28.221282965876917
12.151131634543344,17.544229820656135,51.36876482844414,68.6345394098336,10.59245014149229,9.156964562561111,6.682065548915245,9.214119599831555,147.65,307.8,2638.75,4710.7,112.2,83.85000000000001,44.650000000000006,84.9,1,45.06188225295255
18.022208521710095,28.21081352956699,96.47901326195247,111.68571976756921,25.336732228130764,15.76863976378432,11.441153787970862,11.024971655292362,324.8,795.85,9308.2,12473.7,641.95,248.65,130.9,121.55000000000001,1,73.92388904519831
31.522214389220817,49.39686224852749,87.7681605139358,97.38275001251505,40.770087073735816,25.84279396659734,18.489186028595203,18.277034770443482,993.6500000000001,2440.05,7703.25,9483.4,1662.2,667.85,341.85,334.05,1,92.12358688794413
18.212632978237934,33.98308402720389,71.57373820054391,81.23546023750959,32.592944021674384,17.401149387324963,11.436782764396638,9.99749968742185,331.70000000000005,1154.8500000000001,5122.8,6599.200000000001,1062.3,302.8,130.8,99.95,1,79.67094935723985
5.059644256269407,7.172865536171719,33.04920573932148,31.718291252840213,11.74734012447073,6.752777206453653,4.260281680828158,3.687817782917155,25.6,51.45,1092.25,1006.0500000000001,138.0,45.6,18.150000000000002,13.600000000000001,1,20.107548585130058
10.190682018393076,15.257784898208522,63.81261630743563,69.92424472241369,15.902829936838286,9.841239759298622,7.092249290598858,6.06630035524124,103.85000000000001,232.8,4072.05,4889.400000000001,252.9,96.85000000000001,50.300000000000004,36.800000000000004,1,48.43091102337855
13.206059215375342,20.55966925804012,72.50758581003784,59.7143198906259,12.48398974687179,12.227019260637483,9.5524865872714,10.809717850156867,174.4,422.70000000000005,5257.35,3565.8,155.85000000000002,149.5,91.25,116.85000000000001,1,68.16010105873673
13.67845020461017,23.15923142075315,71.72551847146174,86.00436035457737,18.998684164962583,13.141537200799608,8.45872330792301,8.514693182963201,187.10000000000002,536.35,5144.55,7396.75,360.95000000000005,172.70000000000002,71.55,72.5,1,72.11655214074977
20.58640327983497,33.995587949026564,59.06775770248944,89.32636788765117,26.12087287974887,16.973508771023155,11.289375536317321,10.064790112068906,423.8,1155.7,3489.0,7979.200000000001,682.3000000000001,288.1,127.45,101.30000000000001,1,65.39663808697559
14.09077712548176,28.619049599873158,63.270846367027524,83.04276006973757,24.544856895080894,13.139634698118513,9.468368391650168,8.00312438988674,198.55,819.0500000000001,4003.2000000000003,6896.1,602.45,172.65,89.65,64.05,1,61.16930203475847
8.734987120768983,18.102486017119308,61.535761960018014,55.72252686302013,13.843771162512041,7.9341036040626545,5.813776741499453,4.904079934095692,76.3,327.70000000000005,3786.65,3105.0,191.65,62.95,33.800000000000004,24.05,1,62.40330416352276
4.9396356140913875,6.135959582656978,34.89627487282848,22.45551157288562,6.6257075093909785,4.959838707054898,3.4713109915419564,2.5495097567963922,24.400000000000002,37.65,1217.75,504.25,43.900000000000006,24.6,12.05,6.5,1,23.664044449875746
5.869412236331676,7.92148975887743,39.62953444086872,29.13417237540823,6.603029607687671,3.5637059362410923,2.924038303442689,3.5777087639996634,34.45,62.75,1570.5,848.8000000000001,43.6,12.700000000000001,8.55,12.8,1,37.26290465684859
25.899806949087477,41.66053288185354,91.62123116396113,96.65143558168187,35.70994259306503,21.453437952924933,13.315404612703288,14.603081866510234,670.8000000000001,1735.6000000000001,8394.45,9341.5,1275.2,460.25,177.3,213.25,1,65.62538280241492
22.221611102708103,42.126001471775126,95.21948330042544,92.17212159866996,30.00916526663146,20.081085628023203,12.851069994362337,11.819475453673906,493.8,1774.6000000000001,9066.75,8495.7,900.5500000000001,403.25,165.15,139.70000000000002,1,93.42035723219327
13.099618315050252,28.52893268245414,63.614463764147224,72.4479123232685,12.314625451064275,10.533280590585253,6.924593850905626,7.351870510285121,171.60000000000002,813.9000000000001,4046.8,5248.700000000001,151.65,110.95,47.95,54.050000000000004,1,79.41697353228632
3.286335345030997,4.312771730569565,20.921281031523858,5.157518783291051,7.619055059520177,5.181698563212646,3.8013155617496426,2.7658633371878665,10.8,18.6,437.70000000000005,26.6,58.050000000000004,26.85,14.450000000000001,7.65,1,12.579012532193408
11.6940155635265,17.388214399414334,65.92381967088983,68.12561926324047,12.878276282173792,10.977249200050075,6.752777206453653,6.160357132504576,136.75,302.35,4345.95,4641.1,165.85000000000002,120.5,45.6,37.95,1,43.42255035120684
20.370321548763044,42.080280417316615,84.51922858142991,103.67376717376484,16.554455593585676,12.186057606953941,9.085703054799886,10.894952959971878,414.95000000000005,1770.75,7143.5,10748.25,274.05,148.5,82.55000000000001,118.7,1,75.22152412615986
26.520746595825692,46.61383914675984,96.24448036121345,111.96986201652658,30.06742423288034,19.92862263178266,13.492590559266223,13.720422734012244,703.35,2172.85,9263.0,12537.25,904.0500000000001,397.15000000000003,182.05,188.25,1,90.38185447132167
17.71016657177453,27.289191999764302,59.76913919406904,82.9581219652422,21.302582003128165,16.109003693587013,9.741663102366044,10.0174847142384,313.65000000000003,744.7,3572.3500000000004,6882.05,453.8,259.5,94.9,100.35000000000001,1,78.00680977764124
4.8373546489791295,7.024955515873392,28.115831839019098,23.2163735324878,7.486654793697917,4.588027898781785,2.539685019840059,2.588435821108957,23.400000000000002,49.35,790.5,539.0,56.050000000000004,21.05,6.45,6.7,1,26.141996356183242
5.9455865984779,11.29601699715435,43.15263607243479,25.04595775769016,7.90253124005214,5.962382074305537,3.872983346207417,4.049691346263317,35.35,127.60000000000001,1862.15,627.3000000000001,62.45,35.550000000000004,15.0,16.400000000000002,1,35.63423395572694
17.558473737771173,27.648688938175713,94.45686846386556,80.79851483783597,26.565955657570463,17.916472867168917,11.37321414552632,12.395563722558164,308.3,764.45,8922.1,6528.400000000001,705.75,321.0,129.35,153.65,1,68.80475226815017
22.916151509361253,47.90720196379663,91.56718844651724,82.35138128774769,28.10427013818363,16.486357996840905,10.327148686835104,12.561846997953765,525.15,2295.1,8384.550000000001,6781.75,789.85,271.8,106.65,157.8,1,93.0120284551914
11.313708498984761,22.603097132915213,53.85071958664991,53.16859975587095,8.45872330792301,7.183313998427188,5.792236183029832,6.640783086353597,128.0,510.90000000000003,2899.9,2826.9,71.55,51.6,33.550000000000004,44.1,1,72.70895401658358
3.5142566781611158,3.8600518131237567,20.96544776531138,22.907422377910613,5.389805191284746,3.7282703764614498,3.8078865529319543,2.6076809620810595,12.350000000000001,14.9,439.55,524.75,29.05,13.9,14.5,6.800000000000001,1,18.2367550922911
5.089204259999788,8.006247560499238,52.30583141486234,25.147564494399848,7.956129712366434,5.761944116355173,3.872983346207417,3.7349698793966195,25.900000000000002,64.10000000000001,2735.9,632.4000000000001,63.300000000000004,33.2,15.0,13.950000000000001,1,36.63563959008686
4.764451699828638,7.130918594402828,51.120935046221526,27.72363612515501,4.764451699828638,3.3166247903554,3.0083217912982647,2.924038303442689,22.700000000000003,50.85,2613.3500000000004,768.6,22.700000000000003,11.0,9.05,8.55,1,51.713383230541936
19.256167843057455,21.540659228538015,64.98999923065087,64.02499511909392,22.188961219489297,17.78482499211055,20.58275977608445,13.800362314084365,370.8,464.0,4223.7,4099.2,492.35,316.3,423.65000000000003,190.45000000000002,1,58.05546713843619
22.0,34.912032309792565,98.11829594932844,99.27033796658496,25.78371579117331,18.618539147849383,13.627178724886527,12.767145334803704,484.0,1218.8500000000001,9627.2,9854.6,664.8000000000001,346.65000000000003,185.70000000000002,163.0,1,81.55414758998964
18.81887350507463,34.88696031470784,75.66273851771426,95.63759720946568,29.84878556993567,16.742162345408076,19.749683541768462,10.094552986635911,354.15000000000003,1217.1000000000001,5724.85,9146.550000000001,890.95,280.3,390.05,101.9,1,86.89051723352135
6.172519744804386,11.247221879201993,52.86681378710088,57.60295131327908,7.422937423958254,5.0,7.681145747868608,4.08656334834051,38.1,126.5,2794.9,3318.1000000000004,55.1,25.0,59.0,16.7,1,64.26477615240756
3.8275318418009276,6.453681120105021,36.027073153393964,28.155816450602174,11.997916485790356,7.049822692805827,3.626292872893749,2.6645825188948455,14.65,41.650000000000006,1297.95,792.75,143.95000000000002,49.7,13.15,7.1000000000000005,1,28.872288807040945
6.815423684555495,7.684399781375251,56.11773338259484,59.26592612960671,10.10940156488009,6.192737682156414,4.636809247747852,4.544227107000705,46.45,59.050000000000004,3149.2000000000003,3512.4500000000003,102.2,38.35,21.5,20.650000000000002,1,46.0724032679944
28.518415103227596,40.549352645880795,83.42241904907817,98.01504986480393,31.750590545689068,18.706950579931515,12.477980605851252,16.44992401198255,813.3000000000001,1644.25,6959.3,9606.95,1008.1,349.95000000000005,155.70000000000002,270.6,1,69.77007621583651
34.49637662132068,59.94747701113033,97.99897958652426,98.4477018523033,40.18644049925298,26.33533747647825,19.85572965166478,28.164694211015323,1190.0,3593.7000000000003,9603.800000000001,9691.95,1614.95,693.5500000000001,394.25,793.25,1,90.71069931780121
20.690577565645672,37.36977388210959,79.73863555391452,103.72559954032563,28.74630411026781,17.362315513778686,25.526456863419178,45.41530579000872,428.1,1396.5,6358.25,10759.0,826.35,301.45,651.6,2062.55,1,88.86880757021939
2.958039891549808,5.196152422706632,27.0675081970986,30.64065926183704,6.859300255857007,4.306971093471606,3.0983866769659336,2.179449471770337,8.75,27.0,732.6500000000001,938.85,47.050000000000004,18.55,9.600000000000001,4.75,1,19.80471893659456
3.9115214431215892,6.0332412515993425,36.678331477863054,26.253571185650152,8.826097665446492,5.431390245600108,3.0740852297878796,2.598076211353316,15.3,36.4,1345.3000000000002,689.25,77.9,29.5,9.450000000000001,6.75,1,31.87291983748083
4.301162633521313,8.120960534321048,36.888345042845174,17.861970775925034,9.00555384193554,6.430396566309111,4.674398357008098,3.1859064644147983,18.5,65.95,1360.75,319.05,81.10000000000001,41.35,21.85,10.15,1,36.783338260354114
12.922847983320086,18.018046508986483,57.23416811660671,55.40893429763832,19.29378138157474,12.43583531573171,8.561541917201597,7.516648189186454,167.0,324.65000000000003,3275.75,3070.15,372.25,154.65,73.3,56.5,1,47.06125657972594
21.97726097583591,31.77971050843604,77.13202966342841,92.20981509579119,38.601813428905125,24.209502266672068,15.757537878742351,16.93517050401324,483.0,1009.95,5949.35,8502.65,1490.1000000000001,586.1,248.3,286.8,1,67.18309889001756
23.59237164847994,43.02557379047954,88.1178188563471,87.12577115871055,36.68446537705027,20.71472905929498,12.48198702130394,11.329165900453573,556.6,1851.2,7764.75,7590.900000000001,1345.75,429.1,155.8,128.35,1,82.62492425988776
12.389511693363866,26.736678926149374,52.190037363466224,55.43960678071229,14.390969390558789,8.043631020876083,5.744562646538029,6.689544080129826,153.5,714.85,2723.8,3073.55,207.10000000000002,64.7,33.0,44.75,1,70.15392810990666
4.3531597719357835,8.194510357550353,35.5584026637868,25.533311575273586,6.308724118235001,5.865151319446072,4.4777226354476225,3.492849839314596,18.95,67.15,1264.4,651.95,39.800000000000004,34.4,20.05,12.200000000000001,1,27.232375402013975
8.333666660000267,18.212632978237934,68.32422703551062,45.10931167730228,11.593101396951552,7.88986691902975,8.372574275573792,4.516635916254486,69.45,331.70000000000005,4668.2,2034.8500000000001,134.4,62.25,70.10000000000001,20.400000000000002,1,51.941314849648705
15.17728565982732,27.32947127187059,71.6289047801235,83.8164661626819,21.08909670896314,12.733813254481158,10.984079387914129,10.599528291391085,230.35000000000002,746.9000000000001,5130.700000000001,7025.200000000001,444.75,162.15,120.65,112.35000000000001,1,69.97656590781706
27.527259217001607,49.13959706794511,84.67496678475877,96.80030991685925,32.56224807963971,18.854707634964804,13.147243057006285,15.354152532784088,757.75,2414.7000000000003,7169.85,9370.300000000001,1060.3,355.5,172.85000000000002,235.75,1,78.15193578244114
14.601369798755183,30.068255686022095,83.49820357349013,95.32654404729041,21.193159273690178,11.249444430726346,8.009369513263826,7.067531393633848,213.20000000000002,904.1,6971.950000000001,9087.15,449.15000000000003,126.55000000000001,64.15,49.95,1,84.08658517912446
7.439758060582347,17.79606698121807,53.91196527673611,62.65939674143057,10.91329464460664,6.264982043070834,5.034878350069642,3.8794329482541645,55.35,316.70000000000005,2906.5,3926.2000000000003,119.10000000000001,39.25,25.35,15.05,1,68.70508442511313
7.473285756613352,12.010412149464313,53.419097708591075,39.23327669211431,12.886038956948719,7.3484692283495345,4.642197755374064,4.8425200051213,55.85,144.25,2853.6000000000004,1539.25,166.05,54.0,21.55,23.450000000000003,1,29.529123290269883
23.386962179812922,31.123945765278542,99.78777480232736,92.64556114569116,29.335132520580164,20.12212712413874,12.569805089976535,13.693063937629153,546.95,968.7,9957.6,8583.2,860.5500000000001,404.90000000000003,158.0,187.5,1,76.60343625545923
12.14084016862095,28.53506614676055,86.73926446540806,89.94887436760952,18.07622748252522,10.712142642814275,6.410928169929843,8.252272414311102,147.4,814.25,7523.700000000001,8090.8,326.75,114.75,41.1,68.10000000000001,1,93.26351963386772
7.54983443527075,16.034338152851834,54.1350163941972,64.6896436842869,10.232301793829187,5.352569476429054,4.883646178829912,3.892300091205713,57.0,257.1,2930.6000000000004,4184.75,104.7,28.650000000000002,23.85,15.15,1,70.43714042980264
6.59545297913646,9.604686356149273,39.97999499749844,31.182527158650885,10.437911668528336,4.663689526544408,4.141255848169731,3.456877203488721,43.5,92.25,1598.4,972.35,108.95,21.75,17.150000000000002,11.950000000000001,1,25.280318850047273
8.215838362577491,9.39946807005588,54.96498885654395,47.98020425133682,11.962441222426131,9.967447015158896,6.300793600809346,4.753945729601885,67.5,88.35000000000001,3021.15,2302.1,143.1,99.35000000000001,39.7,22.6,1,47.472491927021196
17.628102563804195,26.338185207033533,69.26687520019941,66.43116738399229,29.579553749169374,17.565591364938445,12.627351266199891,11.337989239719713,310.75,693.7,4797.900000000001,4413.1,874.95,308.55,159.45000000000002,128.55,1,62.11593202837169
28.02498884923953,51.32056118165506,83.5532764169066,92.4594505715884,32.082705621565026,22.059011763902753,13.65283853270081,13.811227316933133,785.4000000000001,2633.8,6981.150000000001,8548.75,1029.3,486.6,186.4,190.75,1,76.41007580855302
18.748333259252675,43.95964058087827,84.64012051031118,107.53371564304844,36.09639871233694,17.0923959701383,11.560709320798617,10.244510725261602,351.5,1932.45,7163.950000000001,11563.5,1302.95,292.15000000000003,133.65,104.95,1,84.0966984636089
9.5420123663722,20.08357537890104,46.33627089009214,60.81200539367206,14.710540438746634,7.661592523751182,6.44980619863884,5.766281297335398,91.05000000000001,403.35,2147.05,3698.1000000000004,216.4,58.7,41.6,33.25,1,65.48819570020167
5.683308895353129,6.312685640834652,31.148033645801785,37.531320253889284,6.430396566309111,6.296824596572466,4.9899899799498595,4.301162633521313,32.300000000000004,39.85,970.2,1408.6000000000001,41.35,39.650000000000006,24.900000000000002,18.5,1,28.388071606613984
9.992497185388645,15.763882770434446,60.027910175184346,71.92218016717791,7.429670248402684,7.151922818375489,6.123724356957945,9.063663718386731,99.85000000000001,248.5,3603.3500000000004,5172.8,55.2,51.150000000000006,37.5,82.15,1,45.58797191049308
16.87601848778319,25.067907770693587,70.65939427988327,96.07549115148983,18.833480825381166,12.431814026923023,8.766413177577247,9.23038460737146,284.8,628.4000000000001,4992.75,9230.5,354.70000000000005,154.55,76.85000000000001,85.2,1,65.34365222753382
26.323943473575536,44.877054270528944,76.8885557153989,103.78198302210264,24.08007475071454,17.432727841620196,13.011533345459329,13.753181450122732,692.95,2013.95,5911.85,10770.7,579.85,303.90000000000003,169.3,189.15,1,73.77397499764109
20.954713073673904,36.110247852929504,92.69573884488973,83.68960508928214,22.57099909175489,16.129166128476697,10.961295543867067,11.090536506409418,439.1,1303.95,8592.5,7003.950000000001,509.45000000000005,260.15000000000003,120.15,123.0,1,84.79214728014432
12.070625501605125,26.17345984007464,67.88004124925087,64.3253449271747,14.773286702694158,9.77496803063826,6.0909769331364245,6.1400325732035,145.70000000000002,685.0500000000001,4607.7,4137.75,218.25,95.55000000000001,37.1,37.7,1,80.2878900470703
25.707975416201098,30.293563672833212,39.067889628184425,18.22909761891685,14.340502083260544,23.67065694060898,55.24264656947565,20.650665848829185,660.9000000000001,917.7,1526.3000000000002,332.3,205.65,560.3000000000001,3051.75,426.45000000000005,2,16.886582805344293
39.29185666267248,27.14037582643247,45.60482430620691,25.04895207388924,16.27421273057471,33.30915789989294,44.74762563533399,24.60081299469593,1543.8500000000001,736.6,2079.8,627.45,264.85,1109.5,2002.3500000000001,605.2,2,22.625739421762557
43.76985263854563,17.944358444926362,21.237937752992874,18.3166590840142,8.5848704125339,32.78032946753281,43.61536426535952,20.036217207846395,1915.8000000000002,322.0,451.05,335.5,73.7,1074.55,1902.3000000000002,401.45000000000005,2,14.45516844124791
49.52120757816796,29.475413483104862,37.07627273607745,22.09524835796149,11.717508267545622,45.875919609311374,74.81878106464981,51.825186926821594,2452.35,868.8000000000001,1374.65,488.20000000000005,137.3,2104.6,5597.85,2685.8500000000004,2,35.930702067333996
39.82210441450828,27.489998181156725,52.255621707142666,24.39672109116305,16.417977951014553,61.0163912403872,69.28997041419487,23.70970265524222,1585.8000000000002,755.7,2730.65,595.2,269.55,3723.0,4801.1,562.15,2,37.76744479103191
36.8286573200816,35.35675324460661,56.4889369699944,52.66545357252703,19.742087022399634,59.987081942698296,80.4179706284609,25.284382531515377,1356.3500000000001,1250.1000000000001,3191.0,2773.65,389.75,3598.4500000000003,6467.05,639.3000000000001,2,19.60459027759262
27.39342986922229,24.521419208520538,47.61302342846965,41.09683686124761,31.56263613832026,48.76781725687546,52.71432442894436,27.40437921208944,750.4000000000001,601.3000000000001,2267.0,1688.95,996.2,2378.3,2778.8,751.0,2,26.34438087180241
26.516032885784405,20.682117879946436,27.45723948251171,11.721774609674084,6.438167441127949,19.178112524437854,52.16943549627502,47.57205061798366,703.1,427.75,753.9000000000001,137.4,41.45,367.8,2721.65,2263.1,2,29.335800079196478
23.508509097771384,26.954591445614604,43.10220411997512,25.149552679918582,14.256577429383253,19.73068675946177,33.769809001532714,26.21831420972752,552.65,726.5500000000001,1857.8000000000002,632.5,203.25,389.3,1140.4,687.4000000000001,2,36.89518241385559
14.24605208470052,15.208550226763892,16.936646657470305,9.643650760992955,11.931051923447487,8.324662155306964,18.368451213970108,30.081555810828668,202.95000000000002,231.3,286.85,93.0,142.35,69.3,337.40000000000003,904.9000000000001,2,28.1499350102781
13.11678314221898,10.709808588392232,12.216791722870616,3.1543620591175006,6.4031242374328485,13.527749258468683,31.397452125928943,17.168284713389397,172.05,114.7,149.25,9.950000000000001,41.0,183.0,985.8000000000001,294.75,2,10.32339506978731
24.147463634924478,25.547015481265124,27.440845468024488,11.956169955299229,8.862843787408192,27.186393655650615,56.20409237769079,23.292702719950725,583.1,652.6500000000001,753.0,142.95000000000002,78.55000000000001,739.1,3158.9,542.5500000000001,2,20.230493716670065
11.31812705353673,31.58480647399949,33.76536687198882,20.292855885754474,18.382056468197458,25.058930543820104,33.544746235439014,18.026369573488722,128.1,997.6,1140.1000000000001,411.8,337.90000000000003,627.95,1125.25,324.95000000000005,2,20.659536146719727
29.311260634779938,23.39871791359518,30.980639115421745,12.523977004130916,5.774945887192364,16.1245154965971,38.51233568611491,12.128478882366082,859.1500000000001,547.5,959.8000000000001,156.85000000000002,33.35,260.0,1483.2,147.1,2,12.517920561288065
18.05131574151868,29.36749904230866,39.89298183891498,21.18608033591868,15.593267778115015,25.062920819409698,31.802515623767878,16.330952207388275,325.85,862.45,1591.45,448.85,243.15,628.1500000000001,1011.4000000000001,266.7,2,14.229715544877182
12.269881825021788,20.036217207846395,36.89715436182037,43.742999439910385,25.379125280434707,23.94577206940716,36.340748478808194,17.24673882216577,150.55,401.45000000000005,1361.4,1913.45,644.1,573.4,1320.65,297.45,2,16.788845514777027
37.332961307670196,19.749683541768462,27.201102918815625,13.164345787011218,6.1400325732035,15.152557539900648,20.903349013973813,16.28803241647069,1393.75,390.05,739.9000000000001,173.3,37.7,229.60000000000002,436.95000000000005,265.3,2,10.708192489226965
71.73318618324436,39.0281949364815,52.492856656882374,40.844216236818646,18.293441447688295,29.080921580995334,57.42560404558231,45.251519311510414,5145.650000000001,1523.2,2755.5,1668.25,334.65000000000003,845.7,3297.7000000000003,2047.7,2,30.769775863990553
23.27767170487633,19.45507645834372,32.51999384993792,17.06751299984857,12.895735729302148,20.805047464497648,27.646880475019238,26.553719136874218,541.85,378.5,1057.55,291.3,166.3,432.85,764.35,705.1,2,35.90261922419232
27.192829937319875,25.545058230507127,34.55719896056392,14.326548781894402,9.132360045464699,21.552262062252307,42.55173321969389,15.279070652366261,739.45,652.5500000000001,1194.2,205.25,83.4,464.5,1810.65,233.45000000000002,2,12.368435832643383
21.595138341765722,19.43579172557681,12.747548783981962,7.183313998427188,4.769696007084728,11.97288603470358,27.88189376638538,15.591664439693409,466.35,377.75,162.5,51.6,22.75,143.35,777.4000000000001,243.10000000000002,2,12.183314413542767
23.188359148503803,28.122944369322354,33.772029847197516,31.15124395590006,15.938946012832844,18.41602562986922,39.679339712248236,30.999193537897078,537.7,790.9000000000001,1140.55,970.4000000000001,254.05,339.15000000000003,1574.45,960.95,2,23.295428988795244
21.4895323355349,35.952746765720136,42.86490405914844,65.93102456355429,35.80851853958776,31.127158559688674,32.08192637607661,28.852209620755218,461.8,1292.6000000000001,1837.4,4346.900000000001,1282.25,968.9000000000001,1029.25,832.45,2,29.925701579326148
19.97248106770914,19.328735085359313,31.80958974900494,11.242775458044157,5.486346689738081,14.363147287415806,34.55285805834302,16.14465855941215,398.90000000000003,373.6,1011.85,126.4,30.1,206.3,1193.9,260.65000000000003,2,10.425518604856094
12.159358535712318,18.976301009416982,33.38113239541163,26.781523481684157,12.978828914813539,50.37509305202324,72.1959140118054,14.27935572776307,147.85,360.1,1114.3,717.25,168.45000000000002,2537.65,5212.25,203.9,2,15.21200714358761
34.47317797940886,24.553003889544758,38.71692136521188,40.61773011875479,19.92736811523288,39.4607399829248,63.81104919996223,19.33002845316064,1188.4,602.85,1499.0,1649.8000000000002,397.1,1557.15,4071.8500000000004,373.65000000000003,2,16.804692090461856
26.758176320519304,15.119523802024982,12.237238250520416,5.2345009313209605,6.877499545619759,14.465476141489432,28.572714256787016,19.406184581210187,716.0,228.60000000000002,149.75,27.400000000000002,47.300000000000004,209.25,816.4000000000001,376.6,2,13.80492115100383
42.29834512129287,35.17172159562281,58.33309523760933,20.915305400591215,14.678215150351217,25.40373988215121,35.17385392589217,26.508489206290125,1789.15,1237.0500000000002,3402.75,437.45000000000005,215.45000000000002,645.35,1237.2,702.7,2,22.957336893750156
25.371243564319034,22.811181468744664,27.494544913491477,11.065712810298304,14.27935572776307,20.08606482116395,39.07428822128434,13.803984931895572,643.7,520.35,755.95,122.45,203.9,403.45000000000005,1526.8000000000002,190.55,2,11.589742459281474
28.834874717952218,28.279851484758545,46.49677408165001,22.451057881534226,12.641202474448386,58.59138161880124,74.95198463016173,15.57080601638849,831.45,799.75,2161.9500000000003,504.05,159.8,3432.9500000000003,5617.8,242.45000000000002,2,14.687395474142031
28.549080545614775,23.309869154501918,44.99388847388054,25.947061490658243,19.47819293466414,60.902791397439245,57.773263712551326,25.48921340488953,815.0500000000001,543.35,2024.45,673.25,379.40000000000003,3709.15,3337.75,649.7,2,20.53000971063901
14.21794640586326,7.459892760623306,7.52994023880668,5.643580423808985,8.32165848854662,12.128478882366082,30.289437102726094,20.62643934371611,202.15,55.650000000000006,56.7,31.85,69.25,147.1,917.45,425.45000000000005,2,11.58797455025625
23.250806437627062,18.505404615949363,28.452592149046808,7.392563831310488,7.334848328356899,10.344080432788601,36.8530867092568,19.672315572906,540.6,342.45000000000005,809.5500000000001,54.650000000000006,53.800000000000004,107.0,1358.15,387.0,2,20.149377458311054
13.440610105199838,25.73518991575543,41.98273454647755,37.82723886302039,14.805404418657398,20.21385663350762,39.193749501674375,16.668833192518306,180.65,662.3000000000001,1762.5500000000002,1430.9,219.20000000000002,408.6,1536.15,277.85,2,18.170574382712154
10.246950765959598,13.72406645276829,28.241812972966166,16.258843747327177,10.707474025184466,12.567816039392046,21.334244772196648,18.418740456393863,105.0,188.35000000000002,797.6,264.35,114.65,157.95000000000002,455.15000000000003,339.25,2,17.543786824456085
26.041313330936287,21.56733641412402,31.140006422606916,10.195587280779858,9.12414379544733,10.153817016275209,38.561638969317684,19.375241933973367,678.1500000000001,465.15000000000003,969.7,103.95,83.25,103.10000000000001,1487.0,375.40000000000003,2,11.805992983418168
28.089143810376278,25.111750237687534,47.20963884632036,25.782746168707476,24.07176769578836,40.784801090602365,64.16502162393463,53.566780750760074,789.0,630.6,2228.75,664.75,579.45,1663.4,4117.150000000001,2869.4,2,30.97117021677571
17.738376475878507,16.777961735562517,21.44644492684044,8.470537173048708,5.094114250780011,18.287974190707946,33.53505628443167,14.418737808837498,314.65000000000003,281.5,459.95000000000005,71.75,25.950000000000003,334.45000000000005,1124.6000000000001,207.9,2,12.455796260248615
31.62435770098738,40.855844135202986,30.61372241332308,22.33718872194977,16.780941570722426,50.41626721604843,77.40607211323928,28.569214199904064,1000.1,1669.2,937.2,498.95000000000005,281.6,2541.8,5991.700000000001,816.2,2,21.49397600437078
22.694713040706198,18.110770276274835,20.543855529087036,6.848357467305573,7.572978278062073,21.341274563624356,38.391405288163135,20.044949488586894,515.0500000000001,328.0,422.05,46.900000000000006,57.35,455.45000000000005,1473.9,401.8,2,15.033712116440167
29.20530773677963,27.83702570318891,48.34511350695125,25.447003752897903,13.910427743243556,38.91208038643013,59.968741857737854,33.23025729662652,852.95,774.9000000000001,2337.25,647.5500000000001,193.5,1514.15,3596.25,1104.25,2,26.637603392606703
21.047565179849187,13.427583550289308,20.465825172711703,17.43989678868542,7.26636084983398,17.667767261315166,24.643457549621562,29.156474409640133,443.0,180.3,418.85,304.15000000000003,52.800000000000004,312.15000000000003,607.3000000000001,850.1,2,31.193365853133322
24.771959954755296,17.67484087622856,27.445400343226915,10.99317970379817,6.082762530298219,7.707139547199077,9.40744386111339,16.824089871371942,613.65,312.40000000000003,753.25,120.85000000000001,37.0,59.400000000000006,88.5,283.05,2,11.344620595409005
35.25549602544262,21.1482859825566,33.426037755019664,12.872451204024818,8.215838362577491,6.884765791223402,13.377219442021573,30.780675756064877,1242.95,447.25,1117.3,165.70000000000002,67.5,47.400000000000006,178.95000000000002,947.45,2,23.802382813718406
18.984203960134856,20.158124912798808,28.582337203244943,16.57105910918189,6.74166151627327,4.753945729601885,15.685981002156034,33.81715540964378,360.40000000000003,406.35,816.95,274.6,45.45,22.6,246.05,1143.6000000000001,2,32.29891558285432
18.642692938521517,12.257650672131263,28.883386228072357,9.343446901438462,4.801041553663121,5.191338940966964,10.956733089748969,29.15990397789403,347.55,150.25,834.25,87.30000000000001,23.05,26.950000000000003,120.05000000000001,850.3000000000001,2,31.488529693768896
64.66065264130884,38.40117185711915,44.875940101573356,44.42746898035043,28.007141946296482,11.588787684654509,9.609890738192604,19.39974226632921,4181.0,1474.65,2013.8500000000001,1973.8000000000002,784.4000000000001,134.3,92.35000000000001,376.35,3,47.83032632065442
59.64645840282556,35.42950747611375,39.07556781417258,33.354909683583315,35.05067759687393,15.92953232207399,14.529280780547948,22.39531200943626,3557.7000000000003,1255.25,1526.9,1112.55,1228.55,253.75,211.10000000000002,501.55,3,34.840698683133624
30.123910768690045,18.127327436773463,56.217879718111035,34.70518693221519,34.786491631091515,10.327148686835104,13.412680567284081,15.642889758609181,907.45,328.6,3160.4500000000003,1204.45,1210.1000000000001,106.65,179.9,244.70000000000002,3,44.8851845857578
65.52556752901879,24.400819658363936,62.37026535136756,51.04067005829763,50.35126612112152,22.553270272845133,17.469974241537965,28.798437457612174,4293.6,595.4,3890.05,2605.15,2535.25,508.65000000000003,305.2,829.35,3,40.96339349793776
34.44415770489968,39.90551340353861,47.19004132229596,56.66171546997143,53.854433429384436,15.023315213360863,17.884350701101788,26.705804612480787,1186.4,1592.45,2226.9,3210.55,2900.3,225.70000000000002,319.85,713.2,3,24.77522389276252
31.55312979721663,13.771347065556078,19.390719429665317,16.536323654307203,9.433981132056603,11.355615351005863,24.13296500639737,24.336187047275914,995.6,189.65,376.0,273.45,89.0,128.95000000000002,582.4,592.25,3,32.998643751058154
57.8459160183327,44.93328387732194,38.73306081372863,57.79057016503644,38.78659562271481,11.166915420114902,13.738631664034086,24.474476501040833,3346.15,2019.0,1500.25,3339.75,1504.4,124.7,188.75,599.0,3,41.546348995743614
39.29312917037787,30.06908711617298,32.944650552100256,26.05858783587476,20.458494568271636,12.083045973594572,16.47725705328408,19.75348070594142,1543.95,904.1500000000001,1085.3500000000001,679.0500000000001,418.55,146.0,271.5,390.20000000000005,3,48.569522594355284
37.59521246116319,21.475567512873788,42.26464243312606,41.98452095713371,36.260170986910694,14.384018909887459,27.949955277245078,35.733037934102384,1413.4,461.20000000000005,1786.3000000000002,1762.7,1314.8000000000002,206.9,781.2,1276.8500000000001,3,27.654806691223776
36.50684867254362,29.166761904606414,47.539983172062655,53.44950888455384,40.896821392377184,13.669308687713508,12.093386622447824,19.366207682455542,1332.75,850.7,2260.05,2856.8500000000004,1672.5500000000002,186.85000000000002,146.25,375.05,3,22.27989922132946
41.32614184750374,22.22273610516941,52.291490703555205,28.572714256787016,17.49428478103635,14.752965803525743,21.727862297059968,28.540322352769596,1707.8500000000001,493.85,2734.4,816.4000000000001,306.05,217.65,472.1,814.5500000000001,3,38.91649526002368
33.87993506487283,25.711864965420148,44.75488800120049,49.81465647778774,33.823069050575526,21.37989709984592,25.627134057478997,25.522539058643833,1147.8500000000001,661.1,2003.0,2481.5,1144.0,457.1,656.75,651.4000000000001,3,28.606693722760767
28.946502379389464,37.31152636920661,38.97691624538812,40.652798181675024,25.558755838264116,14.936532395439043,13.202272531651511,19.937402037376884,837.9000000000001,1392.15,1519.2,1652.65,653.25,223.10000000000002,174.3,397.5,3,25.241259362054194
39.619439672968625,26.66739582336453,49.45401904800054,41.13635861376162,17.052858997833766,17.06311812067185,24.872675770813238,28.178892810044896,1569.7,711.1500000000001,2445.7000000000003,1692.2,290.8,291.15000000000003,618.6500000000001,794.0500000000001,3,34.282971026179055
33.65263734092768,40.0699388569536,37.99473647757015,63.28506932918696,34.34093766920175,15.297058540778355,15.270887335056859,24.689066406002475,1132.5,1605.6000000000001,1443.6000000000001,4005.0,1179.3,234.0,233.20000000000002,609.5500000000001,3,24.181588889837165
26.760044843011755,21.236760581595302,30.659419433511783,29.817779930772847,30.785548557724287,14.79019945774904,21.558061137310098,14.389232085139222,716.1,451.0,940.0,889.1,947.75,218.75,464.75,207.05,3,30.206341091969726
48.945377718432205,37.60983913818298,31.607752213657964,41.7198993287376,34.43254274665175,17.35943547469214,19.138965489283898,32.604447549375834,2395.65,1414.5,999.0500000000001,1740.5500000000002,1185.6000000000001,301.35,366.3,1063.05,3,35.87718358717315
37.35839932331149,48.463388243085106,28.220559881051262,45.557655778145566,25.654434314558564,12.653062870309308,16.0,24.27447218787671,1395.65,2348.7000000000003,796.4000000000001,2075.5,658.1500000000001,160.10000000000002,256.0,589.25,3,29.507980756497407
40.50308630215727,40.749233121618374,44.072667266685826,53.650722269136324,32.258332256953395,16.36917835445628,14.467204291085407,26.150525807333207,1640.5,1660.5,1942.4,2878.4,1040.6000000000001,267.95,209.3,683.85,3,25.867369003079396
37.67227096950754,61.60478877489963,42.163965657893236,46.095552930841386,42.36035882756425,17.565591364938445,15.023315213360863,25.236877778362363,1419.2,3795.15,1777.8000000000002,2124.8,1794.4,308.55,225.70000000000002,636.9000000000001,3,39.08767863583241
55.66102765849729,49.27423261705858,21.9692967570653,48.36786123036659,32.46690622772672,7.231873892705818,6.996427659884722,16.46055892125173,3098.15,2427.9500000000003,482.65000000000003,2339.4500000000003,1054.1000000000001,52.300000000000004,48.95,270.95,3,30.165037335234402
65.82096930310279,85.63848433969392,44.124256367671514,52.74087598817449,23.305578731282345,13.654669530969983,15.313392831113555,28.373403038761495,4332.400000000001,7333.950000000001,1946.95,2781.6000000000004,543.15,186.45000000000002,234.5,805.0500000000001,3,60.740998480800044
38.28968529512876,52.188600287802316,23.789703655153,16.963195453687373,7.566372975210778,9.002777349240622,19.547378340841515,20.0124960961895,1466.1000000000001,2723.65,565.95,287.75,57.25,81.05000000000001,382.1,400.5,3,52.05532729911578
27.12747684544215,24.57437689952687,30.24731393033107,33.087006513131406,40.533319627190664,14.876155417311288,12.043670536842164,17.963852593472257,735.9000000000001,603.9,914.9000000000001,1094.75,1642.95,221.3,145.05,322.70000000000005,3,22.74183735441712
28.019635971939394,6.04979338490167,15.398051824825114,15.868207208125309,4.658325879540846,9.126883367283709,24.992999019725502,17.514279888136993,785.1,36.6,237.10000000000002,251.8,21.700000000000003,83.30000000000001,624.6500000000001,306.75,3,27.573556408690777
40.17835238035527,46.24445912755387,54.90764974026843,38.36600057342438,25.533311575273586,13.040322081911935,7.409453421137082,14.635573101180562,1614.3000000000002,2138.55,3014.8500000000004,1471.95,651.95,170.05,54.900000000000006,214.20000000000002,3,30.17629669109365
33.13306505592261,7.211102550927978,10.658330075579382,17.934603424664846,6.928203230275509,9.370165420097983,19.756011743264377,14.737706741552431,1097.8,52.0,113.60000000000001,321.65000000000003,48.0,87.80000000000001,390.3,217.20000000000002,3,36.655708718138946
8.188406438373708,8.564461454172118,35.09772072371652,33.717947743004764,7.074602462329597,4.588027898781785,3.1622776601683795,8.049844718999243,67.05,73.35000000000001,1231.8500000000001,1136.9,50.050000000000004,21.05,10.0,64.8,4,25.058821431061034
20.603397778036516,19.52690451658941,45.42246140402345,37.76969684813475,8.777812939451376,6.434283176858165,4.727578661429125,12.204507364084796,424.5,381.3,2063.2000000000003,1426.5500000000002,77.05000000000001,41.400000000000006,22.35,148.95000000000002,4,35.74382229556976
25.943207203428027,33.3938617113984,70.58611761529316,40.74432475817951,20.3825906106167,13.490737563232042,9.270922284217466,14.773286702694158,673.0500000000001,1115.15,4982.400000000001,1660.1000000000001,415.45000000000005,182.0,85.95,218.25,4,39.25701080315713
16.76305461424021,25.99326835932719,54.70968835590274,37.170552861102294,12.682665335015349,7.543208866258444,5.770615218501403,12.066482503198685,281.0,675.6500000000001,2993.15,1381.65,160.85000000000002,56.900000000000006,33.300000000000004,145.6,4,31.201733936523254
40.251086941845436,44.4010135019461,73.30995839584142,44.3784857785842,34.68356959714499,18.12456896039186,9.50263121456368,37.25989801381641,1620.15,1971.45,5374.35,1969.45,1202.95,328.5,90.30000000000001,1388.3000000000002,4,40.77451931984324
24.826397241645836,39.010895913834126,52.25083731386513,32.999242415546455,38.452568184712966,17.927632303235136,7.57957782465488,9.233092656309694,616.35,1521.8500000000001,2730.15,1088.95,1478.6000000000001,321.40000000000003,57.45,85.25,4,38.68886409706532
23.769728648009426,10.69579356569675,54.70511859049389,40.41905491225642,7.971825386948713,4.455333881989093,3.263433774416144,14.420471559557267,565.0,114.4,2992.65,1633.7,63.550000000000004,19.85,10.65,207.95000000000002,4,24.20014144397519
14.827339613025663,18.623909364040625,50.706508457987916,38.818809873565165,9.044335243676011,5.352569476429054,4.604345773288535,10.716809226630843,219.85000000000002,346.85,2571.15,1506.9,81.80000000000001,28.650000000000002,21.200000000000003,114.85000000000001,4,39.61893239291079
28.790623473624187,30.661050210323847,60.76100723325774,36.66196939609218,12.751470503436064,8.789197915623474,7.063993204979744,21.368200672962615,828.9000000000001,940.1,3691.9,1344.1000000000001,162.60000000000002,77.25,49.900000000000006,456.6,4,37.740389634828674
22.168671588527808,31.539657575820318,72.78598766246152,53.24424851568477,15.631698564135633,9.388823142439099,6.819090848492928,7.745966692414834,491.45000000000005,994.75,5297.8,2834.9500000000003,244.35000000000002,88.15,46.5,60.0,4,44.95310895588847
17.210461934532727,15.188811671753653,50.127337850717744,38.041424789300414,9.795407086997457,6.723094525588644,3.9370039370059056,8.809086218218097,296.2,230.70000000000002,2512.75,1447.15,95.95,45.2,15.5,77.60000000000001,4,45.64283665249259
9.273618495495704,10.348912986396204,42.322570810384384,25.811818998280614,8.452810183601665,4.9899899799498595,3.6124783736376886,9.41541289588513,86.0,107.10000000000001,1791.2,666.25,71.45,24.900000000000002,13.05,88.65,4,21.57193511645762
18.50810633209135,19.570385790780925,40.1235591641619,38.128073646592746,7.533259586659682,5.860887304837042,5.674504383644443,16.70029939851379,342.55,383.0,1609.9,1453.75,56.75,34.35,32.2,278.90000000000003,4,31.969946322436677
31.225790622496653,40.393687625667454,88.43981004050156,47.899373691103726,16.06237840420901,8.974965180990955,7.463243262818116,12.757350822173073,975.0500000000001,1631.65,7821.6,2294.35,258.0,80.55000000000001,55.7,162.75,4,43.01372366884823
24.08007475071454,18.564751546950472,71.52551992121413,39.94496213541828,15.22990479287379,10.032447358446493,5.911852501542981,10.62779375035101,579.85,344.65000000000003,5115.900000000001,1595.6000000000001,231.95000000000002,100.65,34.95,112.95,4,43.922167913261
31.090995481007038,23.630488780387086,37.17324306540929,46.79903845166052,5.709640969448079,4.679743582719036,3.492849839314596,11.106304515904469,966.6500000000001,558.4,1381.8500000000001,2190.15,32.6,21.900000000000002,12.200000000000001,123.35000000000001,4,31.83308312254676
23.48297255459794,19.094501826442084,53.742906508673315,54.952252001169164,14.366627996854376,8.006247560499238,6.767569726275452,13.638181696985855,551.45,364.6,2888.3,3019.75,206.4,64.10000000000001,45.800000000000004,186.0,4,50.875645226414846
16.23884232326923,16.427111736394806,47.64976390287784,47.07228483938293,12.917043005270207,6.837397165588672,6.978538528947161,18.186533479473212,263.7,269.85,2270.5,2215.8,166.85000000000002,46.75,48.7,330.75,4,51.012268420276044
10.373041983911952,13.10915710486376,48.981118811231745,42.23683226758371,7.024955515873392,5.044799302251775,3.0,11.031772296417289,107.60000000000001,171.85000000000002,2399.15,1783.95,49.35,25.450000000000003,9.0,121.7,4,44.65455855348332
5.142956348249516,5.953990258641679,30.678983033992505,28.158480072617557,7.422937423958254,3.640054944640259,2.80178514522438,3.2326459750489227,26.450000000000003,35.45,941.2,792.9000000000001,55.1,13.25,7.8500000000000005,10.450000000000001,4,35.19765617010063
24.278591392418136,25.0499500997507,50.03099039595359,39.951846014921514,10.979526401443735,5.757603668193912,3.892300091205713,15.459624833740307,589.45,627.5,2503.1000000000004,1596.15,120.55000000000001,33.15,15.15,239.0,4,31.09965889069711
31.678068122914315,26.642071991494955,84.38898032326259,39.155459389464454,9.922197337283713,7.123903424387503,6.356099432828281,19.944924166313594,1003.5,709.8000000000001,7121.5,1533.15,98.45,50.75,40.400000000000006,397.8,4,39.553652702192984
21.723259423944647,29.248931604419333,48.266965929090674,46.995212522128256,11.106304515904469,10.21763181955584,6.565059024867941,11.204909638189859,471.90000000000003,855.5,2329.7000000000003,2208.55,123.35000000000001,104.4,43.1,125.55000000000001,4,43.075335955796355
17.91089054179049,11.577996372429904,55.85516985919925,45.896622969451684,10.373041983911952,5.718391382198319,5.594640292279746,16.077935190813527,320.8,134.05,3119.8,2106.5,107.60000000000001,32.7,31.3,258.5,4,27.575675745295783
7.858116822750856,12.99038105676658,41.42644083191314,31.932741817764413,7.049822692805827,4.652956049652737,3.4641016151377544,6.800735254367722,61.75,168.75,1716.15,1019.7,49.7,21.650000000000002,12.0,46.25,4,38.91468239360805
30.50573716532679,40.69029368289199,64.3673053653794,58.32538041024679,10.639548862616309,8.470537173048708,9.654014708917737,33.98455531561359,930.6,1655.7,4143.150000000001,3401.8500000000004,113.2,71.75,93.2,1154.95,4,45.1290611140056
13.055650117860848,22.699118925632334,64.79776230704267,51.949013465127514,13.099618315050252,9.135097153287424,6.360031446463139,21.384573879317774,170.45000000000002,515.25,4198.75,2698.7000000000003,171.60000000000002,83.45,40.45,457.3,4,55.13719693768715
15.4580076335859,17.501428513124292,59.867770962346675,20.351904087824312,8.831760866327848,5.191338940966964,3.122498999199199,15.011662133155008,238.95000000000002,306.3,3584.15,414.20000000000005,78.0,26.950000000000003,9.75,225.35000000000002,4,20.696764750162565
43.26430399301484,28.31872172256368,69.97785363956228,53.925875050851054,10.96813566655701,9.348796714016196,7.526619427073485,26.956446353330772,1871.8000000000002,801.95,4896.900000000001,2908.0,120.30000000000001,87.4,56.650000000000006,726.6500000000001,4,37.13888956933768
20.74005785912855,21.393924371185385,58.0409338312195,43.45629988850869,11.469524837585906,10.401922899156675,5.9076221950967716,13.527749258468683,430.15000000000003,457.70000000000005,3368.75,1888.45,131.55,108.2,34.9,183.0,4,48.69108746967987
8.83742043811428,10.533280590585253,42.01130800153692,33.397604704529336,8.523496934944014,5.554277630799526,4.427188724235731,10.601886624558858,78.10000000000001,110.95,1764.95,1115.4,72.65,30.85,19.6,112.4,4,21.468498359349393
10.293201639917484,10.47377677822093,40.54565328120883,30.470477515129296,8.188406438373708,4.909175083453431,4.2485291572496005,10.365809182114052,105.95,109.7,1643.95,928.45,67.05,24.1,18.05,107.45,4,31.934041109829312
28.962044126753206,37.28739733475641,51.481550093213,45.51428347233426,10.312613635737547,6.789698078707183,5.518151864528558,18.738996771438966,838.8000000000001,1390.3500000000001,2650.3500000000004,2071.55,106.35000000000001,46.1,30.450000000000003,351.15000000000003,4,37.99238049373177
24.68501569778719,36.00138886209808,65.74534204033013,65.5133574166368,15.533834040570925,10.12916580968048,8.273451516749223,10.634848376916334,609.35,1296.1000000000001,4322.45,4292.0,241.3,102.60000000000001,68.45,113.10000000000001,4,55.51382044448553
12.637246535539298,21.319005605327842,33.55070789119061,52.08790646589667,9.746794344808963,5.9455865984779,5.558776843874918,11.8490505948789,159.70000000000002,454.5,1125.65,2713.15,95.0,35.35,30.900000000000002,140.4,4,58.800631941266744
19.86957473123167,24.08215106671329,59.18065562326933,35.98263470064414,7.385797181076664,4.685082710048992,3.653765181289022,19.48845812269406,394.8,579.95,3502.3500000000004,1294.75,54.550000000000004,21.950000000000003,13.350000000000001,379.8,4,25.862149580779025
22.371857321197094,18.629278032172905,77.9089211836488,48.55615306014264,11.569356075426152,6.526867548832288,6.614378277661476,15.852444606432158,500.5,347.05,6069.8,2357.7000000000003,133.85,42.6,43.75,251.3,4,42.269393880393395
25.376169923769034,33.38337909798827,62.40152241732569,43.44766967283746,12.36729558149234,7.334848328356899,6.180614856144977,13.451765683359191,643.95,1114.45,3893.9500000000003,1887.7,152.95000000000002,53.800000000000004,38.2,180.95000000000002,4,46.00191136649005
11.687600266949584,13.627178724886527,48.070781146139076,28.827070610799147,8.182297965730655,4.832183771339828,3.5142566781611158,4.544227107000705,136.6,185.70000000000002,2310.8,831.0,66.95,23.35,12.350000000000001,20.650000000000002,4,36.13737014181831
8.294576541331088,9.746794344808963,47.6308723413712,29.496609974707262,7.835815209663893,4.701063709417263,3.383784863137726,7.771743691090179,68.8,95.0,2268.7000000000003,870.0500000000001,61.400000000000006,22.1,11.450000000000001,60.400000000000006,4,24.06696905469719
16.158589047314745,28.708883642524313,53.71359232075248,25.51862065237853,9.6591925128346,6.053924347066125,5.412947441089743,14.679918255903198,261.1,824.2,2885.15,651.2,93.30000000000001,36.65,29.3,215.5,4,27.507615313542896
42.47587550598575,42.44113570582201,79.49371044302814,65.38080758143019,11.621101496846158,6.0909769331364245,6.216912416947821,22.711230702011726,1804.2,1801.25,6319.25,4274.650000000001,135.05,37.1,38.650000000000006,515.8000000000001,4,45.44971411690436
14.923136399564267,23.28948260481542,54.427934004516466,33.87329331494061,9.260129588726068,6.6783231428256,5.176871642217914,10.315037566582102,222.70000000000002,542.4,2962.4,1147.4,85.75,44.6,26.8,106.4,4,49.6270504481854
8.330666239863412,7.848566748139434,30.484422251372912,25.260641322025062,6.756478372643548,5.385164807134504,3.3015148038438356,9.825985955617888,69.4,61.6,929.3000000000001,638.1,45.650000000000006,29.0,10.9,96.55000000000001,4,24.697839047159704
18.01249566273369,21.724410233651913,52.78872985780203,33.49626844888845,8.306623862918075,6.496152707564686,4.695742752749559,18.844097219023258,324.45000000000005,471.95000000000005,2786.65,1122.0,69.0,42.2,22.05,355.1,4,29.378454885456755
33.34441482467491,30.44995894906921,47.98437245604031,44.936622035929666,18.698930450696906,9.327379053088816,7.6681158050723255,21.016660058153864,1111.8500000000001,927.2,2302.5,2019.3000000000002,349.65000000000003,87.0,58.800000000000004,441.70000000000005,4,39.21644524240905
19.449935732541636,22.994564575133836,53.751744157748035,44.44097208657794,9.942333730065592,6.6932802122726045,5.162363799656123,16.66433316997713,378.3,528.75,2889.25,1975.0,98.85000000000001,44.800000000000004,26.650000000000002,277.7,4,44.68879706125381
21.18726032312814,8.549853799919621,35.34190147685888,35.455606044742765,9.044335243676011,7.078135347674555,4.488875137492688,10.084641788382967,448.90000000000003,73.10000000000001,1249.0500000000002,1257.1000000000001,81.80000000000001,50.1,20.150000000000002,101.7,4,24.375170922525548
15.116216457830975,18.35619786339208,43.16132528085763,43.260836792646536,4.868264577855234,4.306971093471606,4.674398357008098,13.390294993016397,228.5,336.95000000000005,1862.9,1871.5,23.700000000000003,18.55,21.85,179.3,4,39.358221418694654
23.090041143315442,29.376010620913114,86.53756409791069,59.192060278385306,15.96558799418299,10.224969437607136,7.399324293474371,16.16477652180815,533.15,862.95,7488.75,3503.7000000000003,254.9,104.55000000000001,54.75,261.3,4,51.22644853551592
13.870832707519762,12.072696467649637,55.4179573784527,44.73197961190629,11.517378173872732,6.614378277661476,5.324471804789654,15.394804318340652,192.4,145.75,3071.15,2000.95,132.65,43.75,28.35,237.0,4,51.9620199451458
11.582314103839526,8.028075734570521,44.099319722644246,28.860873167664213,7.60920495189872,6.111464636239009,4.5,13.79130160644745,134.15,64.45,1944.75,832.95,57.900000000000006,37.35,20.25,190.20000000000002,4,20.257099436614993
19.426785632214095,8.84024886527523,38.74080536075625,32.46844622090808,3.7616485747608057,2.6832815729997477,3.24037034920393,13.382824813917276,377.40000000000003,78.15,1500.8500000000001,1054.2,14.15,7.2,10.5,179.10000000000002,4,30.664659694286147
24.956962956257318,10.009995004993758,46.13296001775737,32.83900120283807,10.16366075781753,6.363961030678928,5.477225575051661,24.53263133053607,622.85,100.2,2128.25,1078.4,103.30000000000001,40.5,30.0,601.85,4,32.65372371187307
10.599528291391085,25.990382836734053,53.47990276730129,38.632887544163715,9.439279633531363,5.8395205282625735,5.172040216394301,12.858849093134268,112.35000000000001,675.5,2860.1000000000004,1492.5,89.10000000000001,34.1,26.75,165.35000000000002,4,29.917740862532625
12.704329970525798,31.264196775225173,73.69565794536338,26.326792436603437,12.942179105544785,8.142481194328912,7.700649323271382,16.11831256676703,161.4,977.45,5431.05,693.1,167.5,66.3,59.300000000000004,259.8,4,32.479839990383574
22.006817125609057,14.350958156165044,55.08311901118164,35.49436575007363,9.033271832508971,6.752777206453653,4.631414470763764,16.55294535724685,484.3,205.95000000000002,3034.15,1259.8500000000001,81.60000000000001,45.6,21.450000000000003,274.0,4,30.91057909333853
20.64945519862449,25.358430550804993,71.1712722943745,47.37879272417143,8.564461454172118,6.123724356957945,6.2809234989768825,18.074844397670482,426.40000000000003,643.0500000000001,5065.35,2244.75,73.35000000000001,37.5,39.45,326.70000000000005,4,30.90223214283104
15.462858726639134,26.89609637103496,47.89363214457638,57.8390006829302,11.278297743897348,17.337819932159867,23.940551372096674,17.14497010787712,239.10000000000002,723.4000000000001,2293.8,3345.3500000000004,127.2,300.6,573.15,293.95,4,52.60889670355081
10.461835403025608,19.977487329491666,50.34878350069642,28.247123747383554,10.178408519999577,7.6583287994183165,12.345039489608771,9.896969233053117,109.45,399.1,2535.0,797.9000000000001,103.60000000000001,58.650000000000006,152.4,97.95,4,43.04306221515688
12.727922061357855,12.880217389469792,50.28916384272063,24.88573888796553,6.348228099241551,4.2485291572496005,4.774934554525329,13.850992744204294,162.0,165.9,2529.0,619.3000000000001,40.300000000000004,18.05,22.8,191.85000000000002,4,24.079020010213853
25.03996805109783,28.973263537268288,61.259693110560065,39.16758864163072,11.851160280748886,7.252585745787498,6.024948132556827,15.778149447891536,627.0,839.45,3752.75,1534.1000000000001,140.45000000000002,52.6,36.300000000000004,248.95000000000002,4,32.02666376479812
20.226220605936245,22.045407685048602,58.43586227651647,45.87101481327833,9.831073186585481,6.465291950097845,5.670097000933935,18.0208212909401,409.1,486.0,3414.75,2104.15,96.65,41.800000000000004,32.15,324.75,4,42.51930172745452
10.749418588928426,22.0873266829646,40.735119982639056,43.350893877750664,12.529964086141668,7.024955515873392,5.333854141237834,7.328028384224504,115.55000000000001,487.85,1659.3500000000001,1879.3000000000002,157.0,49.35,28.450000000000003,53.7,4,44.61095434551449
15.288884851420656,21.929432277193133,48.45977713526962,27.996428343629834,9.423375191511797,6.591661399070799,4.533210782657255,17.185749910900018,233.75,480.90000000000003,2348.35,783.8000000000001,88.80000000000001,43.45,20.55,295.35,4,23.624999720480677
29.08779812911249,25.80116276449571,48.95457077740546,52.38558962157437,10.80277742064512,8.974965180990955,9.156964562561111,25.60859230805161,846.1,665.7,2396.55,2744.25,116.7,80.55000000000001,83.85000000000001,655.8000000000001,4,40.1910089826021
22.92487731701088,23.51169921549695,46.01249830209179,37.412564734324214,8.511756575466665,7.024955515873392,4.3531597719357835,20.833866659840176,525.5500000000001,552.8000000000001,2117.15,1399.7,72.45,49.35,18.95,434.05,4,44.899077177949295
9.181503144910424,7.880355321938218,31.90219428189854,27.65140141114009,10.092076099594175,4.701063709417263,3.5496478698597698,9.370165420097983,84.30000000000001,62.1,1017.75,764.6,101.85000000000001,22.1,12.600000000000001,87.80000000000001,4,32.53198307273215
27.202941017470888,24.37621791829077,67.35762763043248,33.49253648202835,7.176350047203662,5.678908345800274,4.806245936279167,9.87674035297071,740.0,594.2,4537.05,1121.75,51.5,32.25,23.1,97.55000000000001,4,23.894694641278782
18.627936010197157,25.5068618218706,55.956232896791754,30.154601638887552,11.556383517346593,8.117881497040962,5.92452529743945,22.32823324851297,347.0,650.6,3131.1000000000004,909.3000000000001,133.55,65.9,35.1,498.55,4,31.82356906045795
12.511994245522974,25.353500744473138,60.63662259723904,34.28337789658423,7.6909037180295,5.152669211195301,4.9749371855331,9.967447015158896,156.55,642.8000000000001,3676.8,1175.3500000000001,59.150000000000006,26.55,24.75,99.35000000000001,4,32.21898976773589
27.278196421317887,12.03536455617361,51.165906617590586,32.884646873579165,9.982484660644364,7.443117626371358,5.809475019311125,11.69829047339824,744.1,144.85,2617.9500000000003,1081.4,99.65,55.400000000000006,33.75,136.85,4,30.542412088993153
31.22018577779447,32.36355975476122,78.85493009317807,71.12489015808741,17.16682847820179,10.66302021005306,8.432081593533118,16.47877422625846,974.7,1047.4,6218.1,5058.75,294.7,113.7,71.10000000000001,271.55,4,52.004768515833284
11.386395390991831,15.529005119453082,50.905304242288935,37.470655185091175,10.15135458941318,5.343220002957018,4.398863489584555,9.866610360199697,129.65,241.15,2591.3500000000004,1404.0500000000002,103.05000000000001,28.55,19.35,97.35000000000001,4,54.297772671589286
2.7202941017470885,3.1622776601683795,3.721558813185679,4.318564576337836,4.8270073544588685,3.9115214431215892,2.23606797749979,2.29128784747792,7.4,10.0,13.850000000000001,18.650000000000002,23.3,15.3,5.0,5.25,5,
2.9068883707497264,3.2171415884290826,3.5142566781611158,2.3664319132398464,4.732863826479693,2.7202941017470885,3.1543620591175006,2.3979157616563596,8.450000000000001,10.350000000000001,12.350000000000001,5.6000000000000005,22.400000000000002,7.4,9.950000000000001,5.75,5,
3.1304951684997055,3.570714214271425,3.8340579025361627,3.0983866769659336,3.5637059362410923,3.331666249791536,2.32379000772445,2.7202941017470885,9.8,12.75,14.700000000000001,9.600000000000001,12.700000000000001,11.100000000000001,5.4,7.4,5,
2.5099800796022267,2.280350850198276,3.570714214271425,2.7838821814150108,3.1543620591175006,3.0413812651491097,2.539685019840059,2.280350850198276,6.300000000000001,5.2,12.75,7.75,9.950000000000001,9.25,6.45,5.2,5,
2.345207879911715,3.449637662132068,3.3015148038438356,3.383784863137726,5.0099900199501395,4.381780460041329,1.9621416870348585,2.1908902300206643,5.5,11.9,10.9,11.450000000000001,25.1,19.200000000000003,3.85,4.800000000000001,5,
2.16794833886788,3.0083217912982647,2.3345235059857505,2.7658633371878665,3.6674241641784495,2.4596747752497685,2.073644135332772,1.9364916731037085,4.7,9.05,5.45,7.65,13.450000000000001,6.050000000000001,4.3,3.75,5,
3.391164991562634,3.22490309931942,3.653765181289022,3.3166247903554,3.8858718455450894,2.6739483914241875,1.9493588689617927,2.2693611435820435,11.5,10.4,13.350000000000001,11.0,15.100000000000001,7.15,3.8000000000000003,5.15,5,
3.2093613071762426,2.7202941017470885,2.073644135332772,2.202271554554524,3.24037034920393,3.0903074280724887,2.3021728866442674,1.6583123951777,10.3,7.4,4.3,4.8500000000000005,10.5,9.55,5.300000000000001,2.75,5,
2.6832815729997477,2.5,2.949576240750525,2.5099800796022267,3.905124837953327,2.8722813232690143,2.0124611797498106,2.0124611797498106,7.2,6.25,8.700000000000001,6.300000000000001,15.25,8.25,4.05,4.05,5,
2.16794833886788,2.5,3.1304951684997055,2.6457513110645907,3.987480407475377,3.2326459750489227,1.6278820596099706,2.1095023109728985,4.7,6.25,9.8,7.0,15.9,10.450000000000001,2.6500000000000004,4.45,5,
2.16794833886788,2.7294688127912363,3.1144823004794873,3.024896692450835,4.738143096192854,3.943348830626071,2.1330729007701543,1.9748417658131499,4.7,7.45,9.700000000000001,9.15,22.450000000000003,15.55,4.55,3.9000000000000004,5,
2.085665361461421,3.5496478698597698,2.224859546128699,2.1447610589527217,4.748684028233506,3.8144462245521304,2.1447610589527217,1.70293863659264,4.3500000000000005,12.600000000000001,4.95,4.6000000000000005,22.55,14.55,4.6000000000000005,2.9000000000000004,5,
2.711088342345192,2.7202941017470885,2.9068883707497264,2.247220505424423,3.7549966711037173,3.2326459750489227,1.5968719422671311,1.760681686165901,7.3500000000000005,7.4,8.450000000000001,5.050000000000001,14.100000000000001,10.450000000000001,2.5500000000000003,3.1,5,
2.949576240750525,2.692582403567252,2.8896366553599777,2.1908902300206643,3.5496478698597698,2.6457513110645907,2.6739483914241875,1.9364916731037085,8.700000000000001,7.25,8.35,4.800000000000001,12.600000000000001,7.0,7.15,3.75,5,
2.3021728866442674,2.5,2.3769728648009427,2.3130067012440754,4.544227107000705,3.0413812651491097,2.3874672772626644,2.073644135332772,5.300000000000001,6.25,5.65,5.3500000000000005,20.650000000000002,9.25,5.7,4.3,5,
2.247220505424423,2.3021728866442674,2.598076211353316,2.258317958127243,4.398863489584555,2.756809750418044,2.0976176963403033,2.1095023109728985,5.050000000000001,5.300000000000001,6.75,5.1000000000000005,19.35,7.6000000000000005,4.4,4.45,5,
2.6076809620810595,2.8106938645110393,2.692582403567252,2.6076809620810595,4.147288270665544,3.1064449134018135,1.9748417658131499,1.9364916731037085,6.800000000000001,7.9,7.25,6.800000000000001,17.2,9.65,3.9000000000000004,3.75,5,
2.247220505424423,3.0740852297878796,2.949576240750525,2.4186773244895647,4.330127018922194,3.331666249791536,1.449137674618944,1.9748417658131499,5.050000000000001,9.450000000000001,8.700000000000001,5.8500000000000005,18.75,11.100000000000001,2.1,3.9000000000000004,5,
2.23606797749979,2.6172504656604803,2.8372521918222215,2.6551836094703507,4.092676385936225,3.605551275463989,1.746424919657298,1.857417562100671,5.0,6.8500000000000005,8.05,7.050000000000001,16.75,13.0,3.0500000000000003,3.45,5,
2.5199206336708304,2.1213203435596424,2.949576240750525,2.8722813232690143,4.43846820423443,3.598610843089316,2.179449471770337,2.3021728866442674,6.3500000000000005,4.5,8.700000000000001,8.25,19.700000000000003,12.950000000000001,4.75,5.300000000000001,5,
1.9874606914351791,2.4698178070456938,2.598076211353316,1.9235384061671346,4.39317652729776,3.0495901363953815,2.3345235059857505,1.5,3.95,6.1000000000000005,6.75,3.7,19.3,9.3,5.45,2.25,5,
2.1447610589527217,2.5787593916455256,3.3541019662496847,2.711088342345192,4.06201920231798,2.8896366553599777,2.1330729007701543,1.9493588689617927,4.6000000000000005,6.65,11.25,7.3500000000000005,16.5,8.35,4.55,3.8000000000000003,5,
2.5787593916455256,3.1859064644147983,2.5,3.2093613071762426,3.9496835316262997,3.391164991562634,2.4899799195977463,1.9235384061671346,6.65,10.15,6.25,10.3,15.600000000000001,11.5,6.2,3.7,5,
1.9748417658131499,2.4899799195977463,3.057776970284131,2.4392621835300936,4.0743097574926725,4.494441010848846,2.1330729007701543,1.8973665961010275,3.9000000000000004,6.2,9.35,5.95,16.6,20.200000000000003,4.55,3.6,5,
2.179449471770337,2.1908902300206643,2.6739483914241875,1.9364916731037085,4.43846820423443,2.8809720581775866,2.2693611435820435,1.6583123951777,4.75,4.800000000000001,7.15,3.75,19.700000000000003,8.3,5.15,2.75,5,
2.202271554554524,2.1908902300206643,2.5495097567963922,1.9748417658131499,3.6674241641784495,2.3130067012440754,1.7748239349298849,1.8303005217723127,4.8500000000000005,4.800000000000001,6.5,3.9000000000000004,13.450000000000001,5.3500000000000005,3.1500000000000004,3.35,5,
2.202271554554524,2.1563858652847827,2.3769728648009427,2.3021728866442674,5.044799302251775,3.653765181289022,1.7748239349298849,2.3874672772626644,4.8500000000000005,4.65,5.65,5.300000000000001,25.450000000000003,13.350000000000001,3.1500000000000004,5.7,5,
2.0124611797498106,2.04939015319192,2.32379000772445,2.6832815729997477,3.0740852297878796,4.08656334834051,3.22490309931942,2.1563858652847827,4.05,4.2,5.4,7.2,9.450000000000001,16.7,10.4,4.65,5,
1.8439088914585775,2.8548204847240397,2.9068883707497264,2.6457513110645907,3.521363372331802,2.8106938645110393,2.3345235059857505,1.2449899597988732,3.4000000000000004,8.15,8.450000000000001,7.0,12.4,7.9,5.45,1.55,5,
2.4596747752497685,2.7202941017470885,2.3769728648009427,2.4392621835300936,2.958039891549808,2.958039891549808,2.588435821108957,2.2693611435820435,6.050000000000001,7.4,5.65,5.95,8.75,8.75,6.7,5.15,5,
2.479919353527449,2.29128784747792,2.4289915602982237,2.29128784747792,3.8144462245521304,2.23606797749979,2.1447610589527217,1.816590212458495,6.15,5.25,5.9,5.25,14.55,5.0,4.6000000000000005,3.3000000000000003,5,
2.5495097567963922,2.4289915602982237,2.7386127875258306,2.4392621835300936,3.987480407475377,3.5777087639996634,2.1095023109728985,2.2135943621178655,6.5,5.9,7.5,5.95,15.9,12.8,4.45,4.9,5,
1.9748417658131499,2.8635642126552705,2.1213203435596424,3.1543620591175006,2.701851217221259,3.714835124201342,2.2693611435820435,1.6881943016134133,3.9000000000000004,8.200000000000001,4.5,9.950000000000001,7.300000000000001,13.8,5.15,2.85,5,
2.4289915602982237,1.8841443681416772,2.5787593916455256,2.9154759474226504,3.570714214271425,3.0495901363953815,2.1563858652847827,2.1213203435596424,5.9,3.5500000000000003,6.65,8.5,12.75,9.3,4.65,4.5,5,
2.569046515733026,2.5099800796022267,2.5,2.701851217221259,3.1144823004794873,3.3090784215548594,1.5329709716755893,2.5,6.6000000000000005,6.300000000000001,6.25,7.300000000000001,9.700000000000001,10.950000000000001,2.35,6.25,5,
1.8303005217723127,2.4596747752497685,3.4132096331752027,2.711088342345192,4.722287581247038,3.3541019662496847,1.8973665961010275,2.5495097567963922,3.35,6.050000000000001,11.65,7.3500000000000005,22.3,11.25,3.6,6.5,5,
1.91049731745428,2.819574435974337,2.16794833886788,2.345207879911715,4.738143096192854,3.9937451095431715,2.3345235059857505,1.8439088914585775,3.6500000000000004,7.95,4.7,5.5,22.450000000000003,15.950000000000001,5.45,3.4000000000000004,5,
1.5,1.8973665961010275,3.427827300200522,2.5199206336708304,3.52845575287547,3.5355339059327378,1.7320508075688772,1.9235384061671346,2.25,3.6,11.75,6.3500000000000005,12.450000000000001,12.5,3.0,3.7,5,
2.355843797877949,3.0903074280724887,3.0903074280724887,2.701851217221259,4.764451699828638,3.1543620591175006,1.7175564037317668,1.9621416870348585,5.550000000000001,9.55,9.55,7.300000000000001,22.700000000000003,9.950000000000001,2.95,3.85,5,
7.33143914930759,2.29128784747792,2.898275349237888,2.3769728648009427,5.239274758971894,4.410215414239989,2.073644135332772,1.760681686165901,53.75,5.25,8.4,5.65,27.450000000000003,19.450000000000003,4.3,3.1,5,
3.0083217912982647,2.6551836094703507,3.248076353782343,2.6551836094703507,2.6551836094703507,3.6742346141747673,2.569046515733026,1.6881943016134133,9.05,7.050000000000001,10.55,7.050000000000001,7.050000000000001,13.5,6.6000000000000005,2.85,5,
3.40587727318528,2.9664793948382653,2.8809720581775866,2.224859546128699,3.3166247903554,3.605551275463989,1.9621416870348585,2.1330729007701543,11.600000000000001,8.8,8.3,4.95,11.0,13.0,3.85,4.55,5,
2.924038303442689,2.6739483914241875,3.605551275463989,3.1304951684997055,2.9664793948382653,3.1144823004794873,1.9748417658131499,2.258317958127243,8.55,7.15,13.0,9.8,8.8,9.700000000000001,3.9000000000000004,5.1000000000000005,5,
2.3979157616563596,2.1447610589527217,3.4713109915419564,3.478505426185217,5.422176684690384,3.5637059362410923,1.6881943016134133,2.04939015319192,5.75,4.6000000000000005,12.05,12.100000000000001,29.400000000000002,12.700000000000001,2.85,4.2,5,
2.7386127875258306,2.598076211353316,2.5199206336708304,1.9748417658131499,3.255764119219941,4.69041575982343,1.91049731745428,1.9874606914351791,7.5,6.75,6.3500000000000005,3.9000000000000004,10.600000000000001,22.0,3.6500000000000004,3.95,5,
1.91049731745428,2.8372521918222215,2.479919353527449,2.5787593916455256,4.031128874149275,2.479919353527449,1.816590212458495,1.7320508075688772,3.6500000000000004,8.05,6.15,6.65,16.25,6.15,3.3000000000000003,3.0,5,
1.6881943016134133,2.23606797749979,3.286335345030997,2.9664793948382653,4.421538193886829,3.3090784215548594,2.4083189157584592,1.9621416870348585,2.85,5.0,10.8,8.8,19.55,10.950000000000001,5.800000000000001,3.85,5,
2.588435821108957,2.5,3.1064449134018135,3.024896692450835,5.324471804789654,2.8460498941515415,2.280350850198276,2.16794833886788,6.7,6.25,9.65,9.15,28.35,8.1,5.2,4.7,5,
2.0124611797498106,2.3874672772626644,3.1859064644147983,2.8106938645110393,4.69041575982343,3.3015148038438356,2.3769728648009427,1.3038404810405297,4.05,5.7,10.15,7.9,22.0,10.9,5.65,1.7000000000000002,5,
2.7386127875258306,2.6457513110645907,3.138470965295043,2.479919353527449,4.4777226354476225,2.7386127875258306,1.8708286933869707,2.8284271247461903,7.5,7.0,9.850000000000001,6.15,20.05,7.5,3.5,8.0,5,
1.746424919657298,2.345207879911715,2.4899799195977463,2.7658633371878665,3.2171415884290826,3.640054944640259,2.3021728866442674,2.1563858652847827,3.0500000000000003,5.5,6.2,7.65,10.350000000000001,13.25,5.300000000000001,4.65,5,
2.202271554554524,2.5099800796022267,3.420526275297414,2.04939015319192,3.8275318418009276,2.898275349237888,2.1095023109728985,1.5968719422671311,4.8500000000000005,6.300000000000001,11.700000000000001,4.2,14.65,8.4,4.45,2.5500000000000003,5,
1.9364916731037085,2.280350850198276,2.8548204847240397,2.1447610589527217,3.248076353782343,3.605551275463989,2.085665361461421,2.6076809620810595,3.75,5.2,8.15,4.6000000000000005,10.55,13.0,4.3500000000000005,6.800000000000001,5,
2.202271554554524,2.1563858652847827,2.8809720581775866,4.631414470763764,3.361547262794322,2.4186773244895647,2.2693611435820435,1.6881943016134133,4.8500000000000005,4.65,8.3,21.450000000000003,11.3,5.8500000000000005,5.15,2.85,5,
1.7175564037317668,2.202271554554524,3.3763886032268267,3.9496835316262997,3.1304951684997055,3.3015148038438356,2.2693611435820435,2.073644135332772,2.95,4.8500000000000005,11.4,15.600000000000001,9.8,10.9,5.15,4.3,5,
2.1447610589527217,2.5495097567963922,2.0976176963403033,3.8535697735995385,2.898275349237888,4.421538193886829,1.8841443681416772,2.0,4.6000000000000005,6.5,4.4,14.850000000000001,8.4,19.55,3.5500000000000003,4.0,5,
2.073644135332772,2.3979157616563596,2.9410882339705484,2.6645825188948455,3.930648801406709,4.135214625627067,2.3664319132398464,2.1563858652847827,4.3,5.75,8.65,7.1000000000000005,15.450000000000001,17.1,5.6000000000000005,4.65,5,
2.4083189157584592,2.3345235059857505,3.024896692450835,3.521363372331802,3.8987177379235853,3.2093613071762426,2.258317958127243,2.479919353527449,5.800000000000001,5.45,9.15,12.4,15.200000000000001,10.3,5.1000000000000005,6.15,5,
2.1213203435596424,2.5,2.3769728648009427,3.4351128074635335,4.080441152620633,3.8794329482541645,2.8460498941515415,2.3664319132398464,4.5,6.25,5.65,11.8,16.650000000000002,15.05,8.1,5.6000000000000005,5,
2.179449471770337,2.23606797749979,2.756809750418044,2.8106938645110393,3.556683848755748,1.8973665961010275,2.23606797749979,2.2693611435820435,4.75,5.0,7.6000000000000005,7.9,12.65,3.6,5.0,5.15,5,
2.1447610589527217,2.5592967784139455,2.792848008753788,2.5,3.9749213828703582,2.949576240750525,1.6881943016134133,1.9493588689617927,4.6000000000000005,6.550000000000001,7.800000000000001,6.25,15.8,8.700000000000001,2.85,3.8000000000000003,5,
2.5495097567963922,2.7477263328068173,2.6076809620810595,2.247220505424423,3.7013511046643495,2.8460498941515415,1.9874606914351791,2.3769728648009427,6.5,7.550000000000001,6.800000000000001,5.050000000000001,13.700000000000001,8.1,3.95,5.65,5,
1.6278820596099706,2.7386127875258306,1.8708286933869707,2.6172504656604803,3.5496478698597698,3.427827300200522,2.085665361461421,1.6733200530681511,2.6500000000000004,7.5,3.5,6.8500000000000005,12.600000000000001,11.75,4.3500000000000005,2.8000000000000003,5,
2.1213203435596424,1.7175564037317668,2.5,2.0248456731316584,3.278719262151,2.8809720581775866,1.6881943016134133,2.0248456731316584,4.5,2.95,6.25,4.1000000000000005,10.75,8.3,2.85,4.1000000000000005,5,
2.1908902300206643,2.819574435974337,2.258317958127243,3.383784863137726,2.6739483914241875,2.6645825188948455,1.9493588689617927,2.3769728648009427,4.800000000000001,7.95,5.1000000000000005,11.450000000000001,7.15,7.1000000000000005,3.8000000000000003,5.65,5,
2.0124611797498106,2.0615528128088303,2.9916550603303182,2.1330729007701543,4.092676385936225,2.6172504656604803,2.5787593916455256,1.9874606914351791,4.05,4.25,8.950000000000001,4.55,16.75,6.8500000000000005,6.65,3.95,5,
2.1908902300206643,2.5,2.6551836094703507,1.857417562100671,5.113707070218238,3.9560080889704965,2.3130067012440754,2.1330729007701543,4.800000000000001,6.25,7.050000000000001,3.45,26.150000000000002,15.65,5.3500000000000005,4.55,5,
2.29128784747792,3.5,2.9916550603303182,4.642197755374064,4.283689998120779,4.068169121361598,2.6832815729997477,2.04939015319192,5.25,12.25,8.950000000000001,21.55,18.35,16.55,7.2,4.2,5,
2.2693611435820435,2.4392621835300936,2.958039891549808,2.4899799195977463,3.5355339059327378,3.4713109915419564,2.247220505424423,2.04939015319192,5.15,5.95,8.75,6.2,12.5,12.05,5.050000000000001,4.2,5,
2.6076809620810595,2.569046515733026,2.247220505424423,2.6172504656604803,4.277849927241488,3.1937438845342623,2.247220505424423,2.3769728648009427,6.800000000000001,6.6000000000000005,5.050000000000001,6.8500000000000005,18.3,10.200000000000001,5.050000000000001,5.65,5,
2.0371548787463363,2.7294688127912363,2.8460498941515415,2.6362852652928135,4.024922359499621,3.591656999213594,2.29128784747792,1.7175564037317668,4.15,7.45,8.1,6.95,16.2,12.9,5.25,2.95,5,
1.9235384061671346,2.4083189157584592,4.129164564412516,1.9364916731037085,5.357238094391549,4.39317652729776,2.3874672772626644,1.8439088914585775,3.7,5.800000000000001,17.05,3.75,28.700000000000003,19.3,5.7,3.4000000000000004,5,
2.5199206336708304,2.9748949561287032,3.8987177379235853,1.91049731745428,3.556683848755748,4.147288270665544,2.598076211353316,1.8841443681416772,6.3500000000000005,8.85,15.200000000000001,3.6500000000000004,12.65,17.2,6.75,3.5500000000000003,5,
2.792848008753788,2.819574435974337,3.4856850115866753,2.932575659723036,4.295346318982906,3.082207001484488,2.280350850198276,2.04939015319192,7.800000000000001,7.95,12.15,8.6,18.45,9.5,5.2,4.2,5,
8.780660567406077,2.9410882339705484,3.331666249791536,1.9874606914351791,3.7416573867739413,3.4132096331752027,2.258317958127243,2.1095023109728985,77.10000000000001,8.65,11.100000000000001,3.95,14.0,11.65,5.1000000000000005,4.45,5,
3.598610843089316,2.449489742783178,2.80178514522438,2.924038303442689,2.9916550603303182,2.7838821814150108,1.8708286933869707,1.8841443681416772,12.950000000000001,6.0,7.8500000000000005,8.55,8.950000000000001,7.75,3.5,3.5500000000000003,5,
2.7477263328068173,2.4289915602982237,3.0903074280724887,2.5199206336708304,4.2895221179054435,4.201190307520001,1.7320508075688772,1.6733200530681511,7.550000000000001,5.9,9.55,6.3500000000000005,18.400000000000002,17.650000000000002,3.0,2.8000000000000003,5,
12.816005617976296,2.6172504656604803,3.968626966596886,2.247220505424423,5.167204273105526,3.398529093593286,2.3021728866442674,1.9364916731037085,164.25,6.8500000000000005,15.75,5.050000000000001,26.700000000000003,11.55,5.300000000000001,3.75,5,
2.7477263328068173,2.6739483914241875,3.427827300200522,10.437911668528336,3.6945906403822333,3.653765181289022,2.3979157616563596,1.6583123951777,7.550000000000001,7.15,11.75,108.95,13.65,13.350000000000001,5.75,2.75,5,
2.7386127875258306,2.5495097567963922,3.1859064644147983,10.807404868885037,5.545268253204709,3.5496478698597698,1.91049731745428,2.4698178070456938,7.5,6.5,10.15,116.80000000000001,30.75,12.600000000000001,3.6500000000000004,6.1000000000000005,5,
3.0495901363953815,2.29128784747792,3.7282703764614498,6.2088646305101545,3.591656999213594,3.286335345030997,2.8372521918222215,2.5495097567963922,9.3,5.25,13.9,38.550000000000004,12.9,10.8,8.05,6.5,5,
2.2693611435820435,3.2015621187164243,3.0495901363953815,4.8425200051213,3.9179076048319463,3.7013511046643495,1.8708286933869707,2.449489742783178,5.15,10.25,9.3,23.450000000000003,15.350000000000001,13.700000000000001,3.5,6.0,5,
2.5787593916455256,2.4899799195977463,3.5,3.1543620591175006,3.866522985836241,3.40587727318528,1.5,1.8708286933869707,6.65,6.2,12.25,9.950000000000001,14.950000000000001,11.600000000000001,2.25,3.5,5,
2.2135943621178655,2.4392621835300936,3.3689761055846033,4.381780460041329,4.092676385936225,4.147288270665544,2.1908902300206643,2.1563858652847827,4.9,5.95,11.350000000000001,19.200000000000003,16.75,17.2,4.800000000000001,4.65,5,
3.3015148038438356,2.80178514522438,2.6076809620810595,3.0413812651491097,4.2895221179054435,3.057776970284131,2.4392621835300936,1.8841443681416772,10.9,7.8500000000000005,6.800000000000001,9.25,18.400000000000002,9.35,5.95,3.5500000000000003,5,
2.7294688127912363,3.3466401061363023,2.0,2.8106938645110393,3.646916505762094,3.1780497164141406,2.711088342345192,2.4392621835300936,7.45,11.200000000000001,4.0,7.9,13.3,10.100000000000001,7.3500000000000005,5.95,5,
2.6362852652928135,2.711088342345192,3.456877203488721,3.255764119219941,4.080441152620633,4.857983120596447,2.073644135332772,2.5592967784139455,6.95,7.3500000000000005,11.950000000000001,10.600000000000001,16.650000000000002,23.6,4.3,6.550000000000001,5,
2.32379000772445,2.8809720581775866,3.1937438845342623,3.3391615714128,4.312771730569565,4.658325879540846,1.6583123951777,2.2693611435820435,5.4,8.3,10.200000000000001,11.15,18.6,21.700000000000003,2.75,5.15,5,
2.23606797749979,2.4392621835300936,3.2326459750489227,3.3241540277189325,3.8144462245521304,3.721558813185679,1.5491933384829668,2.1447610589527217,5.0,5.95,10.450000000000001,11.05,14.55,13.850000000000001,2.4000000000000004,4.6000000000000005,5,
3.3689761055846033,2.5592967784139455,3.1144823004794873,3.0903074280724887,4.2895221179054435,4.522167621838006,1.7888543819998317,1.857417562100671,11.350000000000001,6.550000000000001,9.700000000000001,9.55,18.400000000000002,20.450000000000003,3.2,3.45,5,
2.2135943621178655,2.9748949561287032,3.146426544510455,3.872983346207417,5.594640292279746,5.518151864528558,2.247220505424423,1.9874606914351791,4.9,8.85,9.9,15.0,31.3,30.450000000000003,5.050000000000001,3.95,5,
1.9621416870348585,2.6457513110645907,2.280350850198276,2.8284271247461903,3.591656999213594,3.6193922141707713,1.7175564037317668,1.8027756377319946,3.85,7.0,5.2,8.0,12.9,13.100000000000001,2.95,3.25,5,
2.3769728648009427,2.5199206336708304,3.7416573867739413,3.1144823004794873,5.06951674225463,4.277849927241488,2.073644135332772,1.5652475842498528,5.65,6.3500000000000005,14.0,9.700000000000001,25.700000000000003,18.3,4.3,2.45,5,
2.539685019840059,2.7386127875258306,3.0495901363953815,2.7294688127912363,3.24037034920393,4.663689526544408,2.5,1.8841443681416772,6.45,7.5,9.3,7.45,10.5,21.75,6.25,3.5500000000000003,5,
1.284523257866513,2.0615528128088303,2.924038303442689,3.146426544510455,4.295346318982906,3.521363372331802,2.0,2.3874672772626644,1.6500000000000001,4.25,8.55,9.9,18.45,12.4,4.0,5.7,5,
2.3664319132398464,2.258317958127243,2.598076211353316,2.949576240750525,4.183300132670378,5.518151864528558,2.4899799195977463,2.16794833886788,5.6000000000000005,5.1000000000000005,6.75,8.700000000000001,17.5,30.450000000000003,6.2,4.7,5,
2.247220505424423,1.8303005217723127,3.8340579025361627,2.479919353527449,4.944694126030447,6.320601237224193,2.3345235059857505,2.04939015319192,5.050000000000001,3.35,14.700000000000001,6.15,24.450000000000003,39.95,5.45,4.2,5,
2.1563858652847827,2.4596747752497685,3.383784863137726,4.732863826479693,4.620606020859169,3.9560080889704965,2.202271554554524,2.0371548787463363,4.65,6.050000000000001,11.450000000000001,22.400000000000002,21.35,15.65,4.8500000000000005,4.15,5,
2.7202941017470885,2.5787593916455256,2.7202941017470885,3.5777087639996634,2.692582403567252,3.5496478698597698,2.29128784747792,2.3979157616563596,7.4,6.65,7.4,12.8,7.25,12.600000000000001,5.25,5.75,5,
2.5495097567963922,2.4596747752497685,2.5099800796022267,2.355843797877949,4.969909455915671,3.6124783736376886,2.1213203435596424,1.7175564037317668,6.5,6.050000000000001,6.300000000000001,5.550000000000001,24.700000000000003,13.05,4.5,2.95,5,
2.5298221281347035,3.0083217912982647,2.792848008753788,3.4856850115866753,4.847679857416329,5.761944116355173,2.449489742783178,2.3874672772626644,6.4,9.05,7.800000000000001,12.15,23.5,33.2,6.0,5.7,5,
2.4899799195977463,3.278719262151,3.3763886032268267,3.420526275297414,3.5496478698597698,4.049691346263317,2.0371548787463363,1.9621416870348585,6.2,10.75,11.4,11.700000000000001,12.600000000000001,16.400000000000002,4.15,3.85,5,
2.539685019840059,2.179449471770337,2.7658633371878665,3.6124783736376886,6.1400325732035,5.300943312279429,2.345207879911715,1.816590212458495,6.45,4.75,7.65,13.05,37.7,28.1,5.5,3.3000000000000003,5,
2.7838821814150108,1.9874606914351791,2.1213203435596424,3.170173496829472,4.626013402488151,4.201190307520001,2.3345235059857505,2.085665361461421,7.75,3.95,4.5,10.05,21.400000000000002,17.650000000000002,5.45,4.3500000000000005,5,
2.16794833886788,2.3130067012440754,3.286335345030997,3.2939338184001206,4.277849927241488,4.979959839195493,1.0954451150103321,2.6172504656604803,4.7,5.3500000000000005,10.8,10.850000000000001,18.3,24.8,1.2000000000000002,6.8500000000000005,5,
2.3664319132398464,2.5199206336708304,2.8635642126552705,2.588435821108957,4.283689998120779,3.2093613071762426,2.0124611797498106,1.816590212458495,5.6000000000000005,6.3500000000000005,8.200000000000001,6.7,18.35,10.3,4.05,3.3000000000000003,5,
2.479919353527449,3.4856850115866753,2.9748949561287032,1.51657508881031,4.153311931459037,4.505552130427524,2.3769728648009427,1.8439088914585775,6.15,12.15,8.85,2.3000000000000003,17.25,20.3,5.65,3.4000000000000004,5,
2.6172504656604803,2.6457513110645907,2.80178514522438,3.1144823004794873,3.5637059362410923,3.5071355833500366,1.396424004376894,1.7175564037317668,6.8500000000000005,7.0,7.8500000000000005,9.700000000000001,12.700000000000001,12.3,1.9500000000000002,2.95,5,
2.0124611797498106,2.224859546128699,2.280350850198276,3.1543620591175006,5.089204259999788,3.788139384975162,2.3769728648009427,1.5329709716755893,4.05,4.95,5.2,9.950000000000001,25.900000000000002,14.350000000000001,5.65,2.35,5,
2.04939015319192,2.1095023109728985,2.701851217221259,2.5298221281347035,4.03732584763727,3.626292872893749,2.5,1.7888543819998317,4.2,4.45,7.300000000000001,6.4,16.3,13.15,6.25,3.2,5,
2.345207879911715,3.0,2.4596747752497685,2.9832867780352594,5.670097000933935,5.634713834792322,2.4596747752497685,1.746424919657298,5.5,9.0,6.050000000000001,8.9,32.15,31.75,6.050000000000001,3.0500000000000003,5,
2.29128784747792,3.0659419433511785,3.0983866769659336,3.255764119219941,5.205766033928148,3.427827300200522,2.16794833886788,1.8027756377319946,5.25,9.4,9.600000000000001,10.600000000000001,27.1,11.75,4.7,3.25,5,
2.1908902300206643,3.122498999199199,3.1144823004794873,3.4641016151377544,5.403702434442518,4.031128874149275,2.8635642126552705,1.70293863659264,4.800000000000001,9.75,9.700000000000001,12.0,29.200000000000003,16.25,8.200000000000001,2.9000000000000004,5,
1.9364916731037085,2.8106938645110393,3.383784863137726,9.297849213662266,3.7549966711037173,3.8600518131237567,2.258317958127243,1.70293863659264,3.75,7.9,11.450000000000001,86.45,14.100000000000001,14.9,5.1000000000000005,2.9000000000000004,5,
2.1447610589527217,2.756809750418044,2.4289915602982237,12.027052839328512,6.0332412515993425,3.794733192202055,1.91049731745428,2.6832815729997477,4.6000000000000005,7.6000000000000005,5.9,144.65,36.4,14.4,3.6500000000000004,7.2,5,
3.0983866769659336,3.170173496829472,2.3130067012440754,3.6193922141707713,4.024922359499621,4.370354676682432,1.6881943016134133,1.3601470508735443,9.600000000000001,10.05,5.3500000000000005,13.100000000000001,16.2,19.1,2.85,1.85,5,
1.6733200530681511,2.711088342345192,2.3874672772626644,3.0,4.863126566315131,3.449637662132068,2.0371548787463363,1.9493588689617927,2.8000000000000003,7.3500000000000005,5.7,9.0,23.650000000000002,11.9,4.15,3.8000000000000003,5,
2.3769728648009427,3.286335345030997,2.5495097567963922,3.138470965295043,3.892300091205713,4.358898943540674,2.7202941017470885,1.9364916731037085,5.65,10.8,6.5,9.850000000000001,15.15,19.0,7.4,3.75,5,
2.073644135332772,2.6739483914241875,2.5495097567963922,2.4899799195977463,3.7080992435478315,3.8013155617496426,1.9621416870348585,1.9621416870348585,4.3,7.15,6.5,6.2,13.75,14.450000000000001,3.85,3.85,5,
2.6739483914241875,1.746424919657298,2.692582403567252,3.057776970284131,4.080441152620633,3.427827300200522,2.0615528128088303,1.9493588689617927,7.15,3.0500000000000003,7.25,9.35,16.650000000000002,11.75,4.25,3.8000000000000003,5,
2.3874672772626644,2.0371548787463363,2.9748949561287032,2.949576240750525,4.043513323831146,3.7616485747608057,2.2135943621178655,2.3979157616563596,5.7,4.15,8.85,8.700000000000001,16.35,14.15,4.9,5.75,5,
2.4392621835300936,2.588435821108957,2.898275349237888,2.9664793948382653,3.5142566781611158,3.924283374069717,2.355843797877949,2.0,5.95,6.7,8.4,8.8,12.350000000000001,15.4,5.550000000000001,4.0,5,
3.0083217912982647,2.7294688127912363,2.4698178070456938,2.569046515733026,2.9154759474226504,2.29128784747792,1.8841443681416772,2.0371548787463363,9.05,7.45,6.1000000000000005,6.6000000000000005,8.5,5.25,3.5500000000000003,4.15,5,
2.1447610589527217,2.5,3.0740852297878796,2.8372521918222215,4.147288270665544,3.5425979167836705,13.522203962372405,2.6739483914241875,4.6000000000000005,6.25,9.450000000000001,8.05,17.2,12.55,182.85000000000002,7.15,5,
3.96232255123179,2.8722813232690143,2.80178514522438,2.4596747752497685,3.0083217912982647,3.653765181289022,6.1278054799414114,1.8841443681416772,15.700000000000001,8.25,7.8500000000000005,6.050000000000001,9.05,13.350000000000001,37.550000000000004,3.5500000000000003,5,
2.949576240750525,2.1330729007701543,3.5777087639996634,2.4698178070456938,3.9937451095431715,2.3874672772626644,2.179449471770337,2.4186773244895647,8.700000000000001,4.55,12.8,6.1000000000000005,15.950000000000001,5.7,4.75,5.8500000000000005,5,
7.707139547199077,2.4899799195977463,3.024896692450835,3.3689761055846033,3.4351128074635335,3.8013155617496426,2.3874672772626644,2.1563858652847827,59.400000000000006,6.2,9.15,11.350000000000001,11.8,14.450000000000001,5.7,4.65,5,
3.9560080889704965,2.2135943621178655,2.3130067012440754,2.3345235059857505,3.8600518131237567,3.924283374069717,2.3874672772626644,2.0615528128088303,15.65,4.9,5.3500000000000005,5.45,14.9,15.4,5.7,4.25,5,
5.186520991955976,3.40587727318528,3.3391615714128,3.255764119219941,3.255764119219941,3.968626966596886,1.9493588689617927,1.7175564037317668,26.900000000000002,11.600000000000001,11.15,10.600000000000001,10.600000000000001,15.75,3.8000000000000003,2.95,5,
2.9154759474226504,2.3664319132398464,2.7202941017470885,2.4186773244895647,4.444097208657794,3.8987177379235853,2.4698178070456938,2.179449471770337,8.5,5.6000000000000005,7.4,5.8500000000000005,19.75,15.200000000000001,6.1000000000000005,4.75,5,
3.255764119219941,2.0371548787463363,3.146426544510455,2.247220505424423,4.104875150354759,4.2485291572496005,2.179449471770337,1.8027756377319946,10.600000000000001,4.15,9.9,5.050000000000001,16.85,18.05,4.75,3.25,5,
1.8439088914585775,2.3769728648009427,3.286335345030997,2.073644135332772,4.381780460041329,4.979959839195493,1.857417562100671,2.4392621835300936,3.4000000000000004,5.65,10.8,4.3,19.200000000000003,24.8,3.45,5.95,5,
1.746424919657298,2.9916550603303182,2.692582403567252,2.3979157616563596,3.687817782917155,3.840572873934304,1.857417562100671,2.0,3.0500000000000003,8.950000000000001,7.25,5.75,13.600000000000001,14.75,3.45,4.0,5,
2.0371548787463363,2.1563858652847827,2.5298221281347035,1.6278820596099706,4.165333119931706,3.1543620591175006,2.3021728866442674,1.9621416870348585,4.15,4.65,6.4,2.6500000000000004,17.35,9.950000000000001,5.300000000000001,3.85,5,
2.1563858652847827,2.569046515733026,2.5199206336708304,2.588435821108957,3.4351128074635335,3.40587727318528,2.4899799195977463,1.5329709716755893,4.65,6.6000000000000005,6.3500000000000005,6.7,11.8,11.600000000000001,6.2,2.35,5,
2.9748949561287032,2.6645825188948455,3.0495901363953815,2.247220505424423,4.674398357008098,3.5,2.23606797749979,2.0976176963403033,8.85,7.1000000000000005,9.3,5.050000000000001,21.85,12.25,5.0,4.4,5,
2.898275349237888,2.6832815729997477,3.521363372331802,2.958039891549808,4.272001872658765,4.147288270665544,2.280350850198276,2.3769728648009427,8.4,7.2,12.4,8.75,18.25,17.2,5.2,5.65,5,
2.6267851073127395,2.247220505424423,2.179449471770337,2.958039891549808,5.229722745997153,3.794733192202055,2.0,2.179449471770337,6.9,5.050000000000001,4.75,8.75,27.35,14.4,4.0,4.75,5,
2.792848008753788,3.278719262151,2.932575659723036,2.6362852652928135,4.135214625627067,2.9832867780352594,1.8973665961010275,2.8635642126552705,7.800000000000001,10.75,8.6,6.95,17.1,8.9,3.6,8.200000000000001,5,
2.8722813232690143,2.5099800796022267,2.6551836094703507,2.932575659723036,5.094114250780011,5.13322510708424,2.085665361461421,2.6832815729997477,8.25,6.300000000000001,7.050000000000001,8.6,25.950000000000003,26.35,4.3500000000000005,7.2,5,
2.0124611797498106,2.0976176963403033,3.138470965295043,2.6645825188948455,4.2485291572496005,3.924283374069717,2.6362852652928135,2.1908902300206643,4.05,4.4,9.850000000000001,7.1000000000000005,18.05,15.4,6.95,4.800000000000001,5,
2.1330729007701543,2.9154759474226504,3.605551275463989,3.3391615714128,5.70087712549569,4.55521678957215,2.4083189157584592,2.224859546128699,4.55,8.5,13.0,11.15,32.5,20.75,5.800000000000001,4.95,5,
2.4698178070456938,2.4596747752497685,3.4351128074635335,2.9748949561287032,3.420526275297414,3.3090784215548594,2.3345235059857505,1.91049731745428,6.1000000000000005,6.050000000000001,11.8,8.85,11.700000000000001,10.950000000000001,5.45,3.6500000000000004,5,
2.3021728866442674,3.146426544510455,2.6457513110645907,3.3541019662496847,3.492849839314596,3.0983866769659336,2.539685019840059,1.9748417658131499,5.300000000000001,9.9,7.0,11.25,12.200000000000001,9.600000000000001,6.45,3.9000000000000004,5,
2.16794833886788,3.5,3.2015621187164243,2.8809720581775866,4.201190307520001,4.230839160261236,2.0124611797498106,1.91049731745428,4.7,12.25,10.25,8.3,17.650000000000002,17.900000000000002,4.05,3.6500000000000004,5,
5.813776741499453,3.5777087639996634,4.711687595755898,3.591656999213594,3.449637662132068,3.8275318418009276,2.202271554554524,3.271085446759225,33.800000000000004,12.8,22.200000000000003,12.9,11.9,14.65,4.8500000000000005,10.700000000000001,5,
33.3773875550499,2.792848008753788,2.8106938645110393,2.8372521918222215,4.043513323831146,3.0983866769659336,3.0083217912982647,2.23606797749979,1114.05,7.800000000000001,7.9,8.05,16.35,9.600000000000001,9.05,5.0,5,
3.570714214271425,2.7386127875258306,3.3166247903554,4.2485291572496005,3.391164991562634,3.1937438845342623,3.391164991562634,2.179449471770337,12.75,7.5,11.0,18.05,11.5,10.200000000000001,11.5,4.75,5,
2.9410882339705484,2.3874672772626644,3.4641016151377544,3.2171415884290826,6.111464636239009,6.859300255857007,2.23606797749979,2.1908902300206643,8.65,5.7,12.0,10.350000000000001,37.35,47.050000000000004,5.0,4.800000000000001,5,
2.9410882339705484,2.1213203435596424,8.279492738084864,3.8794329482541645,4.370354676682432,4.674398357008098,1.9235384061671346,2.3345235059857505,8.65,4.5,68.55,15.05,19.1,21.85,3.7,5.45,5,
3.7682887362833544,2.3874672772626644,3.0740852297878796,3.6606010435446255,3.2939338184001206,5.06951674225463,3.1064449134018135,1.9874606914351791,14.200000000000001,5.7,9.450000000000001,13.4,10.850000000000001,25.700000000000003,9.65,3.95,5,
2.5,2.9916550603303182,5.152669211195301,3.5425979167836705,3.9812058474788765,4.674398357008098,2.179449471770337,2.711088342345192,6.25,8.950000000000001,26.55,12.55,15.850000000000001,21.85,4.75,7.3500000000000005,5,
11.070230349906907,5.426785420486054,3.1937438845342623,3.286335345030997,3.9812058474788765,4.230839160261236,2.9410882339705484,2.756809750418044,122.55000000000001,29.450000000000003,10.200000000000001,10.8,15.850000000000001,17.900000000000002,8.65,7.6000000000000005,5,
10.611314715905847,3.7349698793966195,4.494441010848846,4.732863826479693,3.7349698793966195,4.984977432245807,1.9493588689617927,1.9621416870348585,112.60000000000001,13.950000000000001,20.200000000000003,22.400000000000002,13.950000000000001,24.85,3.8000000000000003,3.85,5,
4.0743097574926725,4.449719092257398,3.3090784215548594,4.934571916590131,3.6674241641784495,3.6193922141707713,2.5099800796022267,2.80178514522438,16.6,19.8,10.950000000000001,24.35,13.450000000000001,13.100000000000001,6.300000000000001,7.8500000000000005,5,
3.1144823004794873,3.7349698793966195,3.8144462245521304,3.3166247903554,4.2485291572496005,3.1304951684997055,2.6457513110645907,2.5,9.700000000000001,13.950000000000001,14.55,11.0,18.05,9.8,7.0,6.25,5,
4.03732584763727,2.9154759474226504,4.743416490252569,3.653765181289022,5.630275304103699,3.687817782917155,2.3021728866442674,5.103920062069938,16.3,8.5,22.5,13.350000000000001,31.700000000000003,13.600000000000001,5.300000000000001,26.05,5,
3.3015148038438356,2.449489742783178,4.129164564412516,2.5099800796022267,5.272570530585627,4.272001872658765,2.5787593916455256,2.179449471770337,10.9,6.0,17.05,6.300000000000001,27.8,18.25,6.65,4.75,5,
2.958039891549808,2.9832867780352594,3.3391615714128,4.924428900898052,3.640054944640259,3.331666249791536,2.9154759474226504,2.1095023109728985,8.75,8.9,11.15,24.25,13.25,11.100000000000001,8.5,4.45,5,
3.3241540277189325,2.80178514522438,3.6606010435446255,3.9179076048319463,5.215361924162119,4.110960958218893,3.138470965295043,2.701851217221259,11.05,7.8500000000000005,13.4,15.350000000000001,27.200000000000003,16.900000000000002,9.850000000000001,7.300000000000001,5,
2.479919353527449,2.6076809620810595,4.883646178829912,3.146426544510455,3.653765181289022,3.3241540277189325,2.29128784747792,2.16794833886788,6.15,6.800000000000001,23.85,9.9,13.350000000000001,11.05,5.25,4.7,5,
3.788139384975162,3.40587727318528,3.9370039370059056,3.057776970284131,4.219004621945797,3.383784863137726,2.588435821108957,1.8439088914585775,14.350000000000001,11.600000000000001,15.5,9.35,17.8,11.450000000000001,6.7,3.4000000000000004,5,
3.521363372331802,3.640054944640259,3.626292872893749,3.7080992435478315,5.371219600798314,5.848076606885378,2.924038303442689,2.1447610589527217,12.4,13.25,13.15,13.75,28.85,34.2,8.55,4.6000000000000005,5,
3.7815340802378077,2.4698178070456938,2.8548204847240397,3.6742346141747673,4.2130748865881795,3.687817782917155,2.6267851073127395,2.280350850198276,14.3,6.1000000000000005,8.15,13.5,17.75,13.600000000000001,6.9,5.2,5,
2.598076211353316,3.6606010435446255,2.9916550603303182,2.449489742783178,4.701063709417263,4.969909455915671,2.5592967784139455,2.569046515733026,6.75,13.4,8.950000000000001,6.0,22.1,24.700000000000003,6.550000000000001,6.6000000000000005,5,
3.7349698793966195,2.4083189157584592,3.427827300200522,3.3090784215548594,4.381780460041329,4.376071297408213,1.857417562100671,1.7175564037317668,13.950000000000001,5.800000000000001,11.75,10.950000000000001,19.200000000000003,19.150000000000002,3.45,2.95,5,
2.449489742783178,3.2326459750489227,3.5777087639996634,3.7282703764614498,4.753945729601885,3.22490309931942,2.6362852652928135,2.539685019840059,6.0,10.450000000000001,12.8,13.9,22.6,10.4,6.95,6.45,5,
2.6645825188948455,2.6739483914241875,3.4641016151377544,3.570714214271425,4.318564576337836,5.873670062235365,3.4713109915419564,2.224859546128699,7.1000000000000005,7.15,12.0,12.75,18.650000000000002,34.5,12.05,4.95,5,
1.9748417658131499,3.271085446759225,3.591656999213594,3.943348830626071,5.68770604022395,3.1937438845342623,1.91049731745428,2.479919353527449,3.9000000000000004,10.700000000000001,12.9,15.55,32.35,10.200000000000001,3.6500000000000004,6.15,5,
2.5495097567963922,2.247220505424423,2.958039891549808,3.924283374069717,4.153311931459037,3.361547262794322,2.5,2.2693611435820435,6.5,5.050000000000001,8.75,15.4,17.25,11.3,6.25,5.15,5,
1.746424919657298,2.9410882339705484,2.8896366553599777,3.4641016151377544,4.236744032862972,3.646916505762094,2.569046515733026,2.80178514522438,3.0500000000000003,8.65,8.35,12.0,17.95,13.3,6.6000000000000005,7.8500000000000005,5,
2.3130067012440754,2.479919353527449,2.8722813232690143,4.1952353926806065,4.387482193696061,3.968626966596886,2.4289915602982237,2.5199206336708304,5.3500000000000005,6.15,8.25,17.6,19.25,15.75,5.9,6.3500000000000005,5,
3.3689761055846033,2.4289915602982237,3.24037034920393,2.9410882339705484,4.494441010848846,4.47213595499958,2.0371548787463363,1.4142135623730951,11.350000000000001,5.9,10.5,8.65,20.200000000000003,20.0,4.15,2.0,5,
2.569046515733026,3.3763886032268267,2.792848008753788,3.5142566781611158,4.727578661429125,3.5777087639996634,2.085665361461421,2.29128784747792,6.6000000000000005,11.4,7.800000000000001,12.350000000000001,22.35,12.8,4.3500000000000005,5.25,5,
2.756809750418044,2.9154759474226504,3.449637662132068,3.4641016151377544,4.449719092257398,4.236744032862972,2.04939015319192,2.0248456731316584,7.6000000000000005,8.5,11.9,12.0,19.8,17.95,4.2,4.1000000000000005,5,
2.4289915602982237,2.7838821814150108,2.6739483914241875,3.1622776601683795,4.09878030638384,3.456877203488721,2.9916550603303182,2.3874672772626644,5.9,7.75,7.15,10.0,16.8,11.950000000000001,8.950000000000001,5.7,5,
2.6172504656604803,3.278719262151,2.819574435974337,3.1859064644147983,3.478505426185217,3.255764119219941,1.9874606914351791,1.8708286933869707,6.8500000000000005,10.75,7.95,10.15,12.100000000000001,10.600000000000001,3.95,3.5,5,
2.7477263328068173,2.7202941017470885,2.539685019840059,3.22490309931942,3.9812058474788765,4.324349662087931,2.6267851073127395,2.479919353527449,7.550000000000001,7.4,6.45,10.4,15.850000000000001,18.7,6.9,6.15,5,
3.361547262794322,3.0903074280724887,2.7838821814150108,3.5,4.11703777004778,4.06201920231798,2.2135943621178655,2.792848008753788,11.3,9.55,7.75,12.25,16.95,16.5,4.9,7.800000000000001,5,
2.7748873851023217,2.29128784747792,2.949576240750525,3.6674241641784495,4.743416490252569,3.146426544510455,2.4083189157584592,1.8841443681416772,7.7,5.25,8.700000000000001,13.450000000000001,22.5,9.9,5.800000000000001,3.5500000000000003,5,
2.7658633371878665,3.2171415884290826,2.6551836094703507,3.492849839314596,3.6945906403822333,3.681032463861192,2.569046515733026,2.23606797749979,7.65,10.350000000000001,7.050000000000001,12.200000000000001,13.65,13.55,6.6000000000000005,5.0,5,
3.146426544510455,3.0983866769659336,3.774917217635375,2.80178514522438,4.283689998120779,4.224926034855522,2.3345235059857505,2.202271554554524,9.9,9.600000000000001,14.25,7.8500000000000005,18.35,17.85,5.45,4.8500000000000005,5,
2.5495097567963922,3.449637662132068,2.792848008753788,2.588435821108957,4.110960958218893,4.364630568559039,1.8027756377319946,2.0124611797498106,6.5,11.9,7.800000000000001,6.7,16.900000000000002,19.05,3.25,4.05,5,
2.6076809620810595,2.5099800796022267,2.9154759474226504,3.3391615714128,3.8013155617496426,3.8535697735995385,2.1447610589527217,2.085665361461421,6.800000000000001,6.300000000000001,8.5,11.15,14.450000000000001,14.850000000000001,4.6000000000000005,4.3500000000000005,5,
2.6076809620810595,2.8722813232690143,2.932575659723036,3.263433774416144,4.9396356140913875,3.22490309931942,2.5495097567963922,2.2135943621178655,6.800000000000001,8.25,8.6,10.65,24.400000000000002,10.4,6.5,4.9,5,
2.958039891549808,3.6945906403822333,2.569046515733026,2.4899799195977463,5.509083408335728,3.9115214431215892,1.61245154965971,2.449489742783178,8.75,13.65,6.6000000000000005,6.2,30.35,15.3,2.6,6.0,5,
2.280350850198276,2.5298221281347035,2.1095023109728985,3.478505426185217,4.03732584763727,5.0,2.6457513110645907,2.0371548787463363,5.2,6.4,4.45,12.100000000000001,16.3,25.0,7.0,4.15,5,
2.9832867780352594,2.9664793948382653,2.692582403567252,3.3689761055846033,4.494441010848846,4.55521678957215,2.0976176963403033,2.479919353527449,8.9,8.8,7.25,11.350000000000001,20.200000000000003,20.75,4.4,6.15,5,
3.456877203488721,2.4289915602982237,2.0615528128088303,2.8809720581775866,2.9664793948382653,2.8809720581775866,2.04939015319192,2.073644135332772,11.950000000000001,5.9,4.25,8.3,8.8,8.3,4.2,4.3,5,
2.0124611797498106,2.8548204847240397,2.6172504656604803,2.539685019840059,3.24037034920393,4.110960958218893,3.3466401061363023,1.857417562100671,4.05,8.15,6.8500000000000005,6.45,10.5,16.900000000000002,11.200000000000001,3.45,5,
3.2171415884290826,3.0083217912982647,3.0083217912982647,4.272001872658765,4.483302354291979,4.123105625617661,2.6645825188948455,1.760681686165901,10.350000000000001,9.05,9.05,18.25,20.1,17.0,7.1000000000000005,3.1,5,
2.6267851073127395,2.6645825188948455,2.5099800796022267,3.591656999213594,3.2171415884290826,3.7013511046643495,2.29128784747792,2.247220505424423,6.9,7.1000000000000005,6.300000000000001,12.9,10.350000000000001,13.700000000000001,5.25,5.050000000000001,5,
3.1064449134018135,2.224859546128699,2.924038303442689,3.3241540277189325,5.089204259999788,3.3015148038438356,2.6832815729997477,1.9874606914351791,9.65,4.95,8.55,11.05,25.900000000000002,10.9,7.2,3.95,5,
2.819574435974337,2.3979157616563596,2.0615528128088303,3.24037034920393,4.55521678957215,3.8013155617496426,1.6278820596099706,2.6076809620810595,7.95,5.75,4.25,10.5,20.75,14.450000000000001,2.6500000000000004,6.800000000000001,5,
2.449489742783178,3.138470965295043,2.8372521918222215,5.783597496368502,4.994997497496871,3.1859064644147983,2.1330729007701543,2.0248456731316584,6.0,9.850000000000001,8.05,33.45,24.950000000000003,10.15,4.55,4.1000000000000005,5,
3.1543620591175006,1.816590212458495,2.792848008753788,2.949576240750525,4.110960958218893,3.7013511046643495,3.271085446759225,2.5,9.950000000000001,3.3000000000000003,7.800000000000001,8.700000000000001,16.900000000000002,13.700000000000001,10.700000000000001,6.25,5,
2.4899799195977463,2.8722813232690143,3.1937438845342623,2.29128784747792,4.410215414239989,2.6362852652928135,2.32379000772445,2.3345235059857505,6.2,8.25,10.200000000000001,5.25,19.450000000000003,6.95,5.4,5.45,5,
8.988882021697693,2.792848008753788,2.569046515733026,4.283689998120779,3.1780497164141406,3.8078865529319543,2.8722813232690143,2.073644135332772,80.80000000000001,7.800000000000001,6.6000000000000005,18.35,10.100000000000001,14.5,8.25,4.3,5,
3.248076353782343,2.345207879911715,1.9874606914351791,2.9748949561287032,4.795831523312719,3.7282703764614498,2.7386127875258306,2.0,10.55,5.5,3.95,8.85,23.0,13.9,7.5,4.0,5,
3.2015621187164243,2.3021728866442674,2.2135943621178655,3.924283374069717,3.449637662132068,3.9496835316262997,2.32379000772445,2.32379000772445,10.25,5.300000000000001,4.9,15.4,11.9,15.600000000000001,5.4,5.4,5,
2.8722813232690143,1.9874606914351791,2.924038303442689,3.1064449134018135,4.460941604639093,3.7282703764614498,2.924038303442689,2.1330729007701543,8.25,3.95,8.55,9.65,19.900000000000002,13.9,8.55,4.55,5,
2.8548204847240397,2.3130067012440754,2.8106938645110393,3.591656999213594,3.9937451095431715,3.7416573867739413,2.5298221281347035,1.9493588689617927,8.15,5.3500000000000005,7.9,12.9,15.950000000000001,14.0,6.4,3.8000000000000003,5,
2.4186773244895647,2.8896366553599777,2.5298221281347035,3.0413812651491097,3.570714214271425,4.527692569068709,1.61245154965971,2.345207879911715,5.8500000000000005,8.35,6.4,9.25,12.75,20.5,2.6,5.5,5,
2.7658633371878665,2.1095023109728985,2.9068883707497264,2.4596747752497685,3.5496478698597698,3.9370039370059056,2.224859546128699,2.04939015319192,7.65,4.45,8.450000000000001,6.050000000000001,12.600000000000001,15.5,4.95,4.2,5,
2.539685019840059,1.9621416870348585,2.3664319132398464,3.138470965295043,3.3391615714128,3.9812058474788765,2.345207879911715,1.51657508881031,6.45,3.85,5.6000000000000005,9.850000000000001,11.15,15.850000000000001,5.5,2.3000000000000003,5,
2.8722813232690143,2.692582403567252,2.3345235059857505,3.449637662132068,3.721558813185679,3.1064449134018135,2.3769728648009427,2.3130067012440754,8.25,7.25,5.45,11.9,13.850000000000001,9.65,5.65,5.3500000000000005,5,
2.280350850198276,2.701851217221259,2.8372521918222215,4.722287581247038,4.09878030638384,4.224926034855522,2.0976176963403033,2.4596747752497685,5.2,7.300000000000001,8.05,22.3,16.8,17.85,4.4,6.050000000000001,5,
2.949576240750525,2.6267851073127395,2.2693611435820435,3.521363372331802,3.8535697735995385,3.521363372331802,2.0371548787463363,2.8722813232690143,8.700000000000001,6.9,5.15,12.4,14.850000000000001,12.4,4.15,8.25,5,
1.9364916731037085,2.4083189157584592,3.0413812651491097,2.792848008753788,3.905124837953327,4.358898943540674,2.5099800796022267,2.345207879911715,3.75,5.800000000000001,9.25,7.800000000000001,15.25,19.0,6.300000000000001,5.5,5,
1.8439088914585775,2.4083189157584592,2.073644135332772,3.2093613071762426,3.774917217635375,4.104875150354759,2.4186773244895647,2.0976176963403033,3.4000000000000004,5.800000000000001,4.3,10.3,14.25,16.85,5.8500000000000005,4.4,5,
3.122498999199199,2.224859546128699,2.4596747752497685,3.3391615714128,4.8270073544588685,4.177319714841085,2.4083189157584592,1.91049731745428,9.75,4.95,6.050000000000001,11.15,23.3,17.45,5.800000000000001,3.6500000000000004,5,
2.4899799195977463,2.0,2.3021728866442674,3.3391615714128,3.605551275463989,3.0983866769659336,1.9364916731037085,1.6881943016134133,6.2,4.0,5.300000000000001,11.15,13.0,9.600000000000001,3.75,2.85,5,
2.8722813232690143,2.8460498941515415,2.6267851073127395,3.1937438845342623,4.494441010848846,3.278719262151,2.6076809620810595,2.5298221281347035,8.25,8.1,6.9,10.200000000000001,20.200000000000003,10.75,6.800000000000001,6.4,5,
2.085665361461421,3.1859064644147983,2.692582403567252,2.6267851073127395,3.420526275297414,2.9154759474226504,2.179449471770337,2.085665361461421,4.3500000000000005,10.15,7.25,6.9,11.700000000000001,8.5,4.75,4.3500000000000005,5,
2.4083189157584592,3.1304951684997055,2.1908902300206643,2.073644135332772,3.7013511046643495,2.7386127875258306,2.3874672772626644,2.247220505424423,5.800000000000001,9.8,4.800000000000001,4.3,13.700000000000001,7.5,5.7,5.050000000000001,5,
1.8303005217723127,2.479919353527449,2.280350850198276,2.8896366553599777,4.068169121361598,3.8013155617496426,2.701851217221259,2.04939015319192,3.35,6.15,5.2,8.35,16.55,14.450000000000001,7.300000000000001,4.2,5,
2.5592967784139455,2.202271554554524,2.5787593916455256,3.3689761055846033,3.7483329627982624,3.0659419433511785,1.9621416870348585,1.5491933384829668,6.550000000000001,4.8500000000000005,6.65,11.350000000000001,14.05,9.4,3.85,2.4000000000000004,5,
2.3021728866442674,2.258317958127243,2.3979157616563596,2.756809750418044,4.78539444560216,2.8896366553599777,2.32379000772445,1.746424919657298,5.300000000000001,5.1000000000000005,5.75,7.6000000000000005,22.900000000000002,8.35,5.4,3.0500000000000003,5,
2.0,2.073644135332772,2.3345235059857505,2.9154759474226504,4.61519230368573,4.165333119931706,2.9832867780352594,1.5329709716755893,4.0,4.3,5.45,8.5,21.3,17.35,8.9,2.35,5,
2.280350850198276,2.9154759474226504,3.278719262151,2.04939015319192,3.8794329482541645,4.1952353926806065,1.7888543819998317,2.0124611797498106,5.2,8.5,10.75,4.2,15.05,17.6,3.2,4.05,5,
2.23606797749979,2.0371548787463363,2.7838821814150108,2.4596747752497685,4.460941604639093,3.7549966711037173,2.6551836094703507,1.6881943016134133,5.0,4.15,7.75,6.050000000000001,19.900000000000002,14.100000000000001,7.050000000000001,2.85,5,
2.6832815729997477,1.6733200530681511,2.958039891549808,2.258317958127243,3.146426544510455,3.0495901363953815,18.00416618452518,1.760681686165901,7.2,2.8000000000000003,8.75,5.1000000000000005,9.9,9.3,324.15000000000003,3.1,5,
2.3664319132398464,1.7175564037317668,2.711088342345192,1.9748417658131499,3.930648801406709,2.9832867780352594,2.202271554554524,1.5329709716755893,5.6000000000000005,2.95,7.3500000000000005,3.9000000000000004,15.450000000000001,8.9,4.8500000000000005,2.35,5,
1.9621416870348585,2.6832815729997477,3.0983866769659336,2.9748949561287032,4.183300132670378,2.8548204847240397,2.0976176963403033,1.5652475842498528,3.85,7.2,9.600000000000001,8.85,17.5,8.15,4.4,2.45,5,
2.4289915602982237,2.6551836094703507,2.5199206336708304,3.714835124201342,4.376071297408213,5.0,2.6457513110645907,1.9621416870348585,5.9,7.050000000000001,6.3500000000000005,13.8,19.150000000000002,25.0,7.0,3.85,5,
2.3769728648009427,3.0083217912982647,2.9154759474226504,2.6362852652928135,5.024937810560445,4.58257569495584,2.4083189157584592,2.1908902300206643,5.65,9.05,8.5,6.95,25.25,21.0,5.800000000000001,4.800000000000001,5,
2.756809750418044,3.278719262151,2.3664319132398464,2.8284271247461903,4.068169121361598,4.1952353926806065,2.0976176963403033,2.1095023109728985,7.6000000000000005,10.75,5.6000000000000005,8.0,16.55,17.6,4.4,4.45,5,
2.2135943621178655,2.449489742783178,2.701851217221259,3.2093613071762426,4.460941604639093,2.8635642126552705,1.9748417658131499,2.1095023109728985,4.9,6.0,7.300000000000001,10.3,19.900000000000002,8.200000000000001,3.9000000000000004,4.45,5,
2.29128784747792,2.9410882339705484,2.224859546128699,2.7748873851023217,3.0983866769659336,3.361547262794322,2.2135943621178655,2.16794833886788,5.25,8.65,4.95,7.7,9.600000000000001,11.3,4.9,4.7,5,
2.29128784747792,2.2135943621178655,2.258317958127243,3.3541019662496847,4.577116996538323,4.631414470763764,1.6431676725154984,2.23606797749979,5.25,4.9,5.1000000000000005,11.25,20.950000000000003,21.450000000000003,2.7,5.0,5,
