1,2,3,4,5,6,7,8,9,10,11,12,13,14,15,16,17,Average
4.944694126030447,10.91329464460664,38.31383562109124,34.27024948844114,15.152557539900648,9.674709297958259,4.685082710048992,4.301162633521313,24.450000000000003,119.10000000000001,1467.95,1174.45,229.60000000000002,93.60000000000001,21.950000000000003,18.5,1,34.1268877503952
10.547511554864494,19.820443990990718,58.961428069543906,108.41701895920215,30.054117854297438,16.138463371709214,7.513321502504734,6.375735251718032,111.25,392.85,3476.4500000000003,11754.25,903.25,260.45,56.45,40.650000000000006,1,48.63763184531757
22.508887133752303,35.601966237835796,101.47536646891206,100.68341472159156,48.90092023673992,29.338541204361203,15.76863976378432,14.944898795241137,506.65000000000003,1267.5,10297.25,10137.150000000001,2391.3,860.75,248.65,223.35000000000002,1,80.21839726922798
26.042273326267047,52.06582372343686,106.00966937029848,93.18315298378779,52.975466019658576,29.955800773806732,19.295077092357005,15.354152532784088,678.2,2710.8500000000004,11238.050000000001,8683.1,2806.4,897.35,372.3,235.75,1,103.74251791960526
13.638181696985855,27.405291459862273,63.62743119127158,77.91758466482389,32.253681960359195,19.693907687404245,12.581732790041283,8.58195781858662,186.0,751.0500000000001,4048.4500000000003,6071.150000000001,1040.3,387.85,158.3,73.65,1,84.81855028078503
10.244510725261602,18.619881847100963,40.54010360124897,57.66368007680398,22.606415018750763,13.641847382227965,7.854934754662192,6.395310782127793,104.95,346.70000000000005,1643.5,3325.1000000000004,511.05,186.10000000000002,61.7,40.900000000000006,1,26.626151233452767
14.330038380967443,28.568339118681717,71.89645332003519,64.60650122085238,26.22022120425379,17.906702655709676,9.077444574328174,7.661592523751182,205.35000000000002,816.1500000000001,5169.1,4174.0,687.5,320.65000000000003,82.4,58.7,1,56.21827846064208
21.022606879262142,50.49801976315507,106.97172523615762,120.80500817433025,64.25379366232005,30.683871985132516,16.261918705983007,13.152946437965905,441.95000000000005,2550.05,11442.95,14593.85,4128.55,941.5,264.45,173.0,1,89.43408927809641
30.244834269673227,54.238362807149706,95.13516699938042,86.73407634834189,66.94998132934766,34.32855953866984,22.140460699813815,19.467922333931785,914.75,2941.8,9050.7,7522.8,4482.3,1178.45,490.20000000000005,379.0,1,101.05344611776903
15.695540768001592,33.266349363884224,91.91599425562451,87.29518887086505,47.009573493066284,13.858210562695316,9.085703054799886,8.885381252371786,246.35000000000002,1106.65,8448.550000000001,7620.450000000001,2209.9,192.05,82.55000000000001,78.95,1,93.52558062750246
5.486346689738081,14.38054240979804,40.15221039992693,55.28290875125874,19.557607215607945,9.047098982546835,6.837397165588672,4.994997497496871,30.1,206.8,1612.2,3056.2000000000003,382.5,81.85000000000001,46.75,24.950000000000003,1,66.03410232777571
7.784600182411426,14.186260959111108,40.97865297932571,37.069529265961826,13.490737563232042,12.379418403139947,5.6964901474504455,5.13322510708424,60.6,201.25,1679.25,1374.15,182.0,153.25,32.45,26.35,1,22.26415042459274
17.07629936490925,21.080796948882174,45.756966682681224,81.13045051027389,20.77257807784099,13.053735097664577,8.426149773176359,10.963576058932597,291.6,444.40000000000003,2093.7000000000003,6582.150000000001,431.5,170.4,71.0,120.2,1,43.36780983100347
38.767899091903345,44.128222261949325,79.29438819992245,99.29174185197881,37.56793845821194,24.520399670478458,14.430869689661812,14.295104056983986,1502.95,1947.3000000000002,6287.6,9858.85,1411.3500000000001,601.25,208.25,204.35000000000002,1,62.52567744130184
23.97185850116757,29.21215500438131,83.08670170370226,99.8200881586467,47.912420101681356,17.392527130926087,9.238506372785592,9.51577637400123,574.65,853.35,6903.400000000001,9964.050000000001,2295.6,302.5,85.35000000000001,90.55000000000001,1,81.19054495181236
13.870832707519762,22.122386851332294,62.92296877929394,95.23864761744572,26.69737814842499,13.933771922921661,8.916277250063503,7.996874389409903,192.4,489.40000000000003,3959.3,9070.4,712.75,194.15,79.5,63.95,1,73.0048352414981
22.9978259842099,47.584661394192985,80.72205398774241,91.02225002712248,52.06102188778088,27.73445510551812,16.132265804901678,13.06330739131557,528.9,2264.3,6516.05,8285.050000000001,2710.3500000000004,769.2,260.25,170.65,1,71.82251138351818
3.1144823004794873,8.947066558375433,31.633052334544004,64.7892738036166,14.230249470757707,9.728823155962905,3.7282703764614498,2.6645825188948455,9.700000000000001,80.05000000000001,1000.6500000000001,4197.650000000001,202.5,94.65,13.9,7.1000000000000005,1,21.006661040278676
5.865151319446072,11.002272492535349,48.22758546724064,74.0158766752107,17.705931209625774,7.797435475847171,4.795831523312719,3.570714214271425,34.4,121.05000000000001,2325.9,5478.35,313.5,60.800000000000004,23.0,12.75,1,39.93031890089232
24.624175113087546,38.326883515360336,97.41817078964273,98.45049517397055,38.488309913530884,24.978991172583413,11.85748708622531,10.977249200050075,606.35,1468.95,9490.300000000001,9692.5,1481.3500000000001,623.95,140.6,120.5,1,72.82287812844169
31.024184114977142,60.90361237233798,111.73674418023822,112.81422782610356,60.53800459215682,35.344730866141845,19.790149064623034,16.754103974847474,962.5,3709.25,12485.1,12727.050000000001,3664.8500000000004,1249.25,391.65000000000003,280.7,1,104.57745748494048
22.86153975566825,43.9306271296006,101.14815865847486,109.16707379058944,39.95434894977016,23.130067012440755,12.407658925034971,12.5,522.65,1929.9,10230.95,11917.45,1596.3500000000001,535.0,153.95000000000002,156.25,1,106.44245141935653
17.64227876437735,33.11570624341266,89.13697324903958,100.25567315618603,29.865531972492974,18.80957203128237,11.75372281449584,10.423531071570709,311.25,1096.65,7945.400000000001,10051.2,891.95,353.8,138.15,108.65,1,95.14256595375721
17.02498164463034,33.05298776207682,61.516258013634086,89.56561840349231,28.21967398819483,21.360009363293827,11.009087155618309,9.76985158536198,289.85,1092.5,3784.25,8022.0,796.35,456.25,121.2,95.45,1,75.32661563133684
3.924283374069717,7.870832230456955,18.1190507477627,19.87460691435179,12.033287165193059,6.58027355054484,3.5,2.819574435974337,15.4,61.95,328.3,395.0,144.8,43.300000000000004,12.25,7.95,1,12.896842144751329
21.556901447100415,23.46486735526114,72.96129110699728,75.2608796121863,27.92937521678564,15.554742042219793,8.780660567406077,10.620734437881403,464.70000000000005,550.6,5323.35,5664.200000000001,780.0500000000001,241.95000000000002,77.10000000000001,112.80000000000001,1,45.54017092737999
32.21490338337211,68.0808343074613,114.50458506103587,104.04830608904692,48.216698352334326,37.708752299698276,20.08357537890104,18.9103146457165,1037.8,4635.0,13111.300000000001,10826.050000000001,2324.85,1421.95,403.35,357.6,1,93.73293808401658
30.897410894765923,64.11980973147067,102.11439663436298,104.4124034777478,51.38920120025218,32.47845439672276,18.916923639957954,18.816216410320116,954.6500000000001,4111.35,10427.35,10901.95,2640.8500000000004,1054.8500000000001,357.85,354.05,1,108.30949084769942
23.8725784112232,52.50666624343998,104.78215496925037,110.05089731574205,34.40058139043583,35.625131578704384,18.95125325671102,14.707141122597553,569.9,2756.9500000000003,10979.300000000001,12111.2,1183.4,1269.15,359.15000000000003,216.3,1,103.44827580180667
24.78911051248108,54.64110174584696,82.88455827233442,96.3288637948149,35.4577213029828,21.752011401247472,13.228756555322953,12.633289357883005,614.5,2985.65,6869.85,9279.25,1257.25,473.15000000000003,175.0,159.60000000000002,1,93.83335662079239
5.722761571129799,16.55143498310645,47.621423750240815,44.537063217055525,14.864386970204993,11.674759098157015,4.888762624632126,4.722287581247038,32.75,273.95,2267.8,1983.5500000000002,220.95000000000002,136.3,23.900000000000002,22.3,1,65.25299101128762
4.636809247747852,9.692780818733084,31.659911560204964,14.191546779685433,12.637246535539298,6.5612498809297,3.968626966596886,3.170173496829472,21.5,93.95,1002.35,201.4,159.70000000000002,43.050000000000004,15.75,10.05,1,39.64066765522289
1.9364916731037085,8.902246907382429,42.51646739793888,6.320601237224193,9.635870484808313,6.473020933072903,3.8858718455450894,1.9748417658131499,3.75,79.25,1807.65,39.95,92.85000000000001,41.900000000000006,15.100000000000001,3.9000000000000004,1,37.08818947907193
2.1563858652847827,5.094114250780011,10.561723344227493,18.170030269650074,14.15627069534911,12.7534309109353,4.129164564412516,2.179449471770337,4.65,25.950000000000003,111.55000000000001,330.15000000000003,200.4,162.65,17.05,4.75,1,7.912401145501904
6.621933252457322,12.495999359795118,55.40126352349737,49.49393902287431,22.693611435820433,14.761436244485155,5.9497899122574065,4.58257569495584,43.85,156.15,3069.3,2449.65,515.0,217.9,35.4,21.0,1,32.98149343386243
21.695621678117455,39.14524236736822,73.80074525368968,101.51477724942315,34.82743171696701,25.984610830258745,11.469524837585906,14.6935359937627,470.70000000000005,1532.3500000000001,5446.55,10305.25,1212.95,675.2,131.55,215.9,1,64.60100438859352
21.37171027316251,50.89646353136925,83.90798531725095,109.70779370673716,53.4705526434878,29.068883707497267,34.2227994179319,15.548311805466213,456.75,2590.4500000000003,7040.55,12035.800000000001,2859.1000000000004,845.0,1171.2,241.75,1,78.85436528547032
32.86107119373926,61.645762222556705,86.58954902296234,110.57893108544684,51.885450754522694,32.626676202150904,19.059118552545918,17.487138130637614,1079.8500000000001,3800.2000000000003,7497.75,12227.7,2692.1000000000004,1064.5,363.25,305.8,1,85.24876717010665
22.019309707617992,39.04100408544842,65.9530135778495,106.5267572021227,42.30307317441606,25.320939950957587,14.237275020171522,14.382280764885659,484.85,1524.2,4349.8,11347.95,1789.5500000000002,641.1500000000001,202.70000000000002,206.85000000000002,1,76.27128130040592
5.07444578254611,9.731392500562292,28.55170747958868,50.39692450933886,13.166244718977389,8.17312669668102,4.224926034855522,3.24037034920393,25.75,94.7,815.2,2539.8500000000004,173.35000000000002,66.8,17.85,10.5,1,20.9793975786903
12.047821379818012,19.763602910400724,55.03180898353242,102.66231051364468,38.004604984133174,14.596232390586279,7.739509028355739,5.540758070878027,145.15,390.6,3028.5,10539.550000000001,1444.3500000000001,213.05,59.900000000000006,30.700000000000003,1,41.79175823156055
27.84151576333444,52.61938806181615,94.00638276202314,118.02160819104272,52.593725861551206,30.17863482664516,15.367172804390533,14.378803844548406,775.1500000000001,2768.8,8837.2,13929.1,2766.1000000000004,910.75,236.15,206.75,1,74.51909587277777
36.14761402914444,66.772374527195,78.87395007225136,105.28603896053835,50.61966021221399,44.39819816163715,25.485289874749316,22.521101216414795,1306.65,4458.55,6221.1,11085.150000000001,2562.3500000000004,1971.2,649.5,507.20000000000005,1,86.44016641713725
31.541242841714404,61.89547640983144,91.1375334316219,113.54932848766654,47.39409245887086,39.49620234908668,22.915060549778175,19.361043360315065,994.85,3831.05,8306.050000000001,12893.45,2246.2000000000003,1559.95,525.1,374.85,1,85.00574175193663
19.54098257509074,44.125956080293605,92.1276288634414,99.01111048766194,30.540137524248316,21.880356487041066,12.231107881136523,10.837435120913065,381.85,1947.1000000000001,8487.5,9803.2,932.7,478.75,149.6,117.45,1,91.63258114753164
3.271085446759225,10.786565718522276,35.372305551094634,46.38426457323647,16.11521020650987,10.171037311896953,4.857983120596447,4.522167621838006,10.700000000000001,116.35000000000001,1251.2,2151.5,259.7,103.45,23.6,20.450000000000003,1,63.749967207268
3.653765181289022,12.198360545581526,34.47607866332829,23.542514733987108,11.534730165894649,10.104454463255301,4.620606020859169,5.2583267300539625,13.350000000000001,148.8,1188.6000000000001,554.25,133.05,102.10000000000001,21.35,27.650000000000002,1,34.92419210721145
2.701851217221259,7.58617163001207,12.529964086141668,19.973732750790475,15.551527256189342,6.942621983083913,3.0903074280724887,2.3874672772626644,7.300000000000001,57.550000000000004,157.0,398.95000000000005,241.85000000000002,48.2,9.55,5.7,1,10.872041842986597
13.028814220795383,24.518360467209057,80.58225611137975,87.57996346197,26.59323222175146,15.064859773658698,8.851553535961921,6.866585760041158,169.75,601.15,6493.5,7670.25,707.2,226.95000000000002,78.35000000000001,47.150000000000006,1,46.5561100987607
31.888085549308226,63.70361057271401,97.15580270884493,104.46171547509643,61.99637086152705,43.790409909020035,24.058262613912916,17.947144619688114,1016.85,4058.15,9439.25,10912.25,3843.55,1917.6000000000001,578.8000000000001,322.1,1,88.86902941011232
34.82384240717845,62.236243459900436,105.54098729877411,111.55850483042518,49.747361739091254,43.30415684434925,27.474533663012373,22.615260334561704,1212.7,3873.3500000000004,11138.900000000001,12445.300000000001,2474.8,1875.25,754.85,511.45000000000005,1,101.3483950038095
33.3878720495931,68.6403671318853,103.461828709916,101.55835760783059,54.0430384045901,37.67160734558588,22.38972978845435,18.277034770443482,1114.75,4711.5,10704.35,10314.1,2920.65,1419.15,501.3,334.05,1,104.50140800434504
13.725887949418793,27.26627954085412,64.30552075832992,72.85087508053695,23.732888572611635,17.727097901235837,11.480418110852932,8.737848705488096,188.4,743.45,4135.2,5307.25,563.25,314.25,131.8,76.35000000000001,1,83.88367473412293
2.9916550603303182,9.2951600308978,30.329853280225407,35.9784657816311,11.50651989091402,8.576129663198895,6.34428877022476,2.8635642126552705,8.950000000000001,86.4,919.9000000000001,1294.45,132.4,73.55,40.25,8.200000000000001,1,47.31768701927764
3.1144823004794873,8.8656641037206,39.771220750688556,9.484197383015603,7.172865536171719,8.674675786448736,4.242640687119285,2.6739483914241875,9.700000000000001,78.60000000000001,1581.75,89.95,51.45,75.25,18.0,7.15,1,35.05053701545696
5.089204259999788,7.713624310270756,27.43264478682287,30.105647310762144,13.998214171814917,6.48459713474939,5.2583267300539625,3.0495901363953815,25.900000000000002,59.5,752.5500000000001,906.35,195.95000000000002,42.050000000000004,27.650000000000002,9.3,1,17.71163214360601
14.0089257261219,11.668333214302718,50.8620683810637,83.8555305272109,13.917614738165444,10.47377677822093,9.281702430050212,7.526619427073485,196.25,136.15,2586.9500000000003,7031.75,193.70000000000002,109.7,86.15,56.650000000000006,1,39.147356583943264
22.5055548698538,33.93817909081157,92.8878355867979,109.86810274142354,41.060321479501354,22.60530911091463,16.068602926203635,11.029505881951376,506.5,1151.8,8628.15,12071.0,1685.95,511.0,258.2,121.65,1,71.87495198393079
32.61058110491133,76.08383533970931,113.82091196260906,116.38277363940078,49.75841637351414,43.07493470685707,24.541801074900757,19.87838021570168,1063.45,5788.75,12955.2,13544.95,2475.9,1855.45,602.3000000000001,395.15000000000003,1,103.35437377470348
32.4530430006186,54.44033431197865,90.76783571287794,85.60607455081677,43.49770108867824,28.241812972966166,14.973309587395834,14.20915198032592,1053.2,2963.75,8238.800000000001,7328.400000000001,1892.0500000000002,797.6,224.20000000000002,201.9,1,102.29437383774348
15.26597523907333,33.79053121807942,85.44910766064207,79.61092889798485,33.117970952339455,16.703293088490067,9.989994994993742,8.54107721543366,233.05,1141.8,7301.55,6337.900000000001,1096.8,279.0,99.80000000000001,72.95,1,88.10847168676
8.056053624449133,11.045361017187261,34.39985465085572,56.096345692032386,14.747881203752625,9.6591925128346,5.054700782440045,5.103920062069938,64.9,122.0,1183.3500000000001,3146.8,217.5,93.30000000000001,25.55,26.05,1,28.13553430446655
21.5916650585359,41.98392549536072,69.97821089453488,99.42886904717362,49.08462080937368,28.75847701113534,16.62678561839299,14.41700384962146,466.20000000000005,1762.65,4896.95,9886.1,2409.3,827.0500000000001,276.45,207.85000000000002,1,52.189032772695285
23.706539182259394,50.78237883360723,87.19288961836281,112.7592568262136,52.19339038613989,27.657729480201372,15.790820118030602,14.517231140957975,562.0,2578.8500000000004,7602.6,12714.650000000001,2724.15,764.95,249.35000000000002,210.75,1,78.58555025644884
23.71181140275875,49.41609049692215,92.24776420054852,86.74963976870451,53.892021672971225,36.48355794052987,18.274298892159994,14.522396496446445,562.25,2441.9500000000003,8509.65,7525.5,2904.3500000000004,1331.0500000000002,333.95000000000005,210.9,1,89.72032690945565
15.697133496278868,37.41991448413532,98.43449598590934,112.9238681590389,34.55068740271313,18.3166590840142,11.895377253370318,10.069756700139283,246.4,1400.25,9689.35,12751.800000000001,1193.75,335.5,141.5,101.4,1,95.34113009322891
18.750999973334757,37.90448522272793,74.64449075450914,76.2308992469589,38.17787317282093,22.38972978845435,14.01427843308388,11.099549540409287,351.6,1436.75,5571.8,5811.150000000001,1457.5500000000002,501.3,196.4,123.2,1,86.53949337020923
2.7658633371878665,9.35147047260483,31.414168777798338,9.184225606985054,8.593602271457529,6.614378277661476,4.177319714841085,3.082207001484488,7.65,87.45,986.85,84.35000000000001,73.85000000000001,43.75,17.45,9.5,1,53.02932976615373
2.0248456731316584,4.929503017546495,8.983317872590282,9.1104335791443,10.256705123966467,5.608029957123981,3.598610843089316,2.7202941017470885,4.1000000000000005,24.3,80.7,83.0,105.2,31.450000000000003,12.950000000000001,7.4,1,10.208957249309769
8.61974477580398,18.308467986153293,52.690131903421914,66.19025608048362,17.333493589002767,13.103434664239753,7.483314773547883,5.315072906367325,74.3,335.20000000000005,2776.25,4381.150000000001,300.45,171.70000000000002,56.0,28.25,1,30.83672488800609
28.922309727959142,45.92058361998462,77.79460135510689,102.14058938541524,45.17742799230607,37.58590161217368,21.2179169571379,16.884904500766357,836.5,2108.7000000000003,6052.0,10432.7,2041.0,1412.7,450.20000000000005,285.1,1,65.2423666292644
22.057878411125582,56.018746862099654,107.43393318686606,115.84882390425895,53.90547282048456,29.803523281652456,16.858232410309213,12.853015210447703,486.55,3138.1000000000004,11542.050000000001,13420.95,2905.8,888.25,284.2,165.20000000000002,1,92.61426727098646
25.73130389234094,56.88980576518081,86.2331142891175,103.51666532496108,40.04435041301082,35.13829819442029,22.281157959136685,17.517134468856487,662.1,3236.4500000000003,7436.150000000001,10715.7,1603.5500000000002,1234.7,496.45000000000005,306.85,1,96.83352373799177
23.889328161335975,51.421299088996186,101.96911297054613,114.4180929748438,47.55733381929647,30.312538659769164,19.081404560461475,14.931510305391079,570.7,2644.15,10397.7,13091.5,2261.7000000000003,918.85,364.1,222.95000000000002,1,94.10111362983181
17.847969072138152,31.376742979474464,89.7323798859698,95.64256374648267,33.35266106324951,19.497435728833675,13.553597308463905,10.052362906302179,318.55,984.5,8051.900000000001,9147.5,1112.4,380.15000000000003,183.70000000000002,101.05000000000001,1,95.85074642825796
3.626292872893749,11.088282103193443,25.931640904501204,52.57661076942865,12.087183294713455,8.093207028119323,8.145550932871268,3.478505426185217,13.15,122.95,672.45,2764.3,146.1,65.5,66.35000000000001,12.100000000000001,1,19.12110273659792
15.021651041080672,25.88242647048379,44.048268978474056,77.50548367696314,21.894063122225624,15.407790237409127,9.332738076256078,7.832624081366347,225.65,669.9000000000001,1940.25,6007.1,479.35,237.4,87.10000000000001,61.35,1,34.989954941487625
31.11832257689993,75.09826895475021,103.13292393799372,108.55482485822544,54.025456962435776,39.189922173946705,20.403431084011338,18.19752730455432,968.35,5639.75,10636.400000000001,11784.150000000001,2918.75,1535.8500000000001,416.3,331.15000000000003,1,73.59059645823388
30.001666620372944,58.056007441090884,106.69395484281198,114.34443580690754,60.3580980482321,33.90796366637195,21.99204401596177,19.671044710436707,900.1,3370.5,11383.6,13074.650000000001,3643.1000000000004,1149.75,483.65000000000003,386.95000000000005,1,104.91343939040284
24.95395760195164,56.79656679765072,108.55321275761487,107.64408948010104,55.47612098912468,28.315190269535538,24.200206610688266,14.46029045351441,622.7,3225.8500000000004,11783.800000000001,11587.25,3077.6000000000004,801.75,585.65,209.10000000000002,1,107.62358380021342
16.886385048316292,30.67327827278982,100.23098323372868,106.49154896046916,27.104427682576144,18.70427758562196,15.165750888103101,11.434596626029272,285.15000000000003,940.85,10046.25,11340.45,734.6500000000001,349.85,230.0,130.75,1,104.39209799567178
5.239274758971894,19.880895352071043,54.61410074330621,61.24459159795255,12.167579874403948,8.814760348415605,9.418067742376884,3.24037034920393,27.450000000000003,395.25,2982.7000000000003,3750.9,148.05,77.7,88.7,10.5,1,77.42254198851744
5.034878350069642,15.836666315863324,49.74434641243163,31.570555902612803,13.548062592119953,8.72066511224918,5.5362442142665635,2.792848008753788,25.35,250.8,2474.5,996.7,183.55,76.05,30.650000000000002,7.800000000000001,1,52.17922357786891
4.147288270665544,15.910688231500233,65.90713163232034,31.815876539866068,11.987493482792805,7.794228634059948,4.254409477236529,5.014977567247933,17.2,253.15,4343.75,1012.25,143.70000000000002,60.75,18.1,25.150000000000002,1,57.825739022375984
3.7616485747608057,8.916277250063503,44.08287649416721,41.00060975156345,10.319883720275147,4.219004621945797,4.147288270665544,3.0,14.15,79.5,1943.3000000000002,1681.0500000000002,106.5,17.8,17.2,9.0,1,54.99500406324377
3.5,7.3824115301167,24.167126432408136,63.57239967155558,13.468481725866505,6.841052550594828,4.883646178829912,3.5142566781611158,12.25,54.5,584.0500000000001,4041.4500000000003,181.4,46.800000000000004,23.85,12.350000000000001,1,21.964099638888822
11.65975986030587,24.21982658897458,51.84013888870284,97.8547392822647,28.628656971642943,16.688319268278637,7.7781745930520225,8.312640976248161,135.95000000000002,586.6,2687.4,9575.550000000001,819.6,278.5,60.5,69.10000000000001,1,38.00363266055549
31.19775632958242,56.410991836697924,90.22915271684646,111.134378119464,63.36323855359667,42.66204402041702,23.47871376374779,18.289341158171883,973.3000000000001,3182.2000000000003,8141.3,12350.85,4014.9,1820.0500000000002,551.25,334.5,1,71.03464580277465
20.52802961806125,40.973161947792114,97.75684119282906,103.10746820672108,57.136678237363434,27.08597423021738,15.337861650177967,12.743625857659193,421.40000000000003,1678.8000000000002,9556.4,10631.150000000001,3264.6000000000004,733.6500000000001,235.25,162.4,1,93.99299695483776
19.12589867169645,39.64656353330008,80.51366343671116,104.55381389504642,43.44939585310709,25.441108466417102,14.385756844879591,11.880656547514535,365.8,1571.8500000000001,6482.450000000001,10931.5,1887.8500000000001,647.25,206.95000000000002,141.15,1,89.1352523147701
8.703447592764606,18.510807653908568,53.362439974199084,87.43454694798847,31.323314000916312,13.599632347971763,8.831760866327848,7.893034904268446,75.75,342.65000000000003,2847.55,7644.8,981.1500000000001,184.95000000000002,78.0,62.300000000000004,1,66.93805170545512
6.363961030678928,13.279683731173721,45.754781170933384,58.45853231137436,13.683932183404009,10.029955134495866,4.914264950122246,4.55521678957215,40.5,176.35000000000002,2093.5,3417.4,187.25,100.60000000000001,24.150000000000002,20.75,1,28.384204546370036
25.554842985234714,41.40591745149478,80.17667990132792,91.78589216214003,40.54503668761443,24.36801181877586,15.62209973083004,11.58015543937127,653.0500000000001,1714.45,6428.3,8424.65,1643.9,593.8000000000001,244.05,134.1,1,62.96573053613065
17.864769799804307,38.101181084055646,78.09385379144763,101.86118004421508,42.68606329939551,27.037936311782374,14.345731072343439,10.965856099730654,319.15000000000003,1451.7,6098.650000000001,10375.7,1822.1000000000001,731.0500000000001,205.8,120.25,1,79.13526684638776
15.869782607206691,48.79446689943441,85.36656254061072,87.65757240535468,23.7823463939116,23.101947969814148,11.108555261599053,10.0174847142384,251.85000000000002,2380.9,7287.450000000001,7683.85,565.6,533.7,123.4,100.35000000000001,1,81.73020816602917
10.435516278555651,15.778149447891536,68.28909136897342,88.87125519536674,19.4164878389476,12.171688461343397,10.375451797391765,8.163945124754331,108.9,248.95000000000002,4663.400000000001,7898.1,377.0,148.15,107.65,66.65,1,76.82782695479206
4.312771730569565,5.9497899122574065,27.36603734558586,28.56483852571199,13.173837709642548,6.0456596000767355,4.219004621945797,2.7386127875258306,18.6,35.4,748.9000000000001,815.95,173.55,36.550000000000004,17.8,7.5,1,47.82756435727963
3.6742346141747673,8.651589449343975,37.77300623461151,7.334848328356899,10.312613635737547,4.658325879540846,3.63318042491699,3.6124783736376886,13.5,74.85000000000001,1426.8000000000002,53.800000000000004,106.35000000000001,21.700000000000003,13.200000000000001,13.05,1,32.569521790098676
3.7013511046643495,8.8656641037206,28.53944638566067,18.801595676963167,7.8198465458089395,8.464632301523794,5.2583267300539625,3.1937438845342623,13.700000000000001,78.60000000000001,814.5,353.5,61.150000000000006,71.65,27.650000000000002,10.200000000000001,1,33.156226310136084
3.1304951684997055,7.648529270389178,32.728428009912115,14.427404478976806,9.420721840708387,4.685082710048992,3.1144823004794873,3.3015148038438356,9.8,58.5,1071.15,208.15,88.75,21.950000000000003,9.700000000000001,10.9,1,30.633937197786384
2.6457513110645907,6.016643582596529,15.998437423698602,34.46519983983844,11.49130105775669,7.286974680894672,11.13777356566383,4.8425200051213,7.0,36.2,255.95000000000002,1187.8500000000001,132.05,53.1,124.05000000000001,23.450000000000003,1,13.264672158609603
15.192103211866355,28.167356993512897,64.69157595854347,76.39175348164224,26.83188401883103,22.764006677208652,19.529464918425184,12.722028140198402,230.8,793.4000000000001,4185.0,5835.700000000001,719.95,518.2,381.40000000000003,161.85000000000002,1,40.34500669112103
23.583892808440257,37.07492414017863,94.9247070050785,103.59922779634991,35.837829175328125,25.68462575160479,16.610237806846715,13.714955340794953,556.2,1374.5500000000002,9010.7,10732.800000000001,1284.3500000000001,659.7,275.90000000000003,188.10000000000002,1,79.80814148181098
27.91325849842687,57.35241930380967,100.77995832505589,111.78125961000796,56.66392150213397,30.922483729480724,21.55110205998756,19.080094339389415,779.1500000000001,3289.3,10156.6,12495.050000000001,3210.8,956.2,464.45000000000005,364.05,1,97.8523326650672
30.801785662522878,54.152562266249234,98.349631417713,101.45220549598712,51.29278701727954,40.45985664828782,24.9899979991996,20.8578522384257,948.75,2932.5,9672.65,10292.550000000001,2630.9500000000003,1637.0,624.5,435.05,1,99.56479487138444
9.049861877399014,17.339261806662936,48.12743500333256,78.48471188709301,12.84523257866513,11.813128290169374,6.59545297913646,5.186520991955976,81.9,300.65000000000003,2316.25,6159.85,165.0,139.55,43.5,26.900000000000002,1,73.23853321052277
5.787918451395113,11.571516754514077,31.111091269834944,45.76680019402711,14.281106399715675,5.643580423808985,5.648008498577175,4.888762624632126,33.5,133.9,967.9000000000001,2094.6,203.95000000000002,31.85,31.900000000000002,23.900000000000002,1,23.212242050474245
15.765468594367883,33.89542742022883,49.242258274778585,75.59331981068169,27.54087870784082,24.856588663772833,13.870832707519762,10.86047881080756,248.55,1148.9,2424.8,5714.35,758.5,617.85,192.4,117.95,1,40.176674772306754
36.21946990225009,69.0941386804988,106.0464520858666,114.91039987746974,62.181990962014076,40.983533278623014,22.399776784602118,20.752108326625514,1311.8500000000001,4774.0,11245.85,13204.400000000001,3866.6000000000004,1679.65,501.75,430.65000000000003,1,77.64435518032258
37.92558503174341,77.7145417537799,108.22545911198529,116.5626441017876,77.23697301163479,48.49484508687495,27.204778991934486,22.057878411125582,1438.3500000000001,6039.55,11712.75,13586.85,5965.55,2351.75,740.1,486.55,1,107.13595559892593
24.625190354594217,61.019668960098436,95.67261886245197,114.80831851394741,75.14086770859117,35.53308317610505,28.21081352956699,19.417775361765827,606.4,3723.4,9153.25,13180.95,5646.150000000001,1262.6000000000001,795.85,377.05,1,101.94903898721861
8.378544026261364,21.36469049623701,83.7248469691047,84.72897969408106,58.380647478423874,16.074825037928093,10.389898940798222,6.870225614927067,70.2,456.45000000000005,7009.85,7179.0,3408.3,258.40000000000003,107.95,47.2,1,89.69873291577832
3.122498999199199,12.874393189583733,46.667440469775066,28.008927148321835,14.796959147068021,6.85200700525036,4.527692569068709,2.9916550603303182,9.75,165.75,2177.85,784.5,218.95000000000002,46.95,20.5,8.950000000000001,1,65.19614371943987
5.563272418280449,14.862705002791383,54.20516580548389,23.514888900439228,10.620734437881403,10.365809182114052,4.78539444560216,3.6606010435446255,30.950000000000003,220.9,2938.2000000000003,552.95,112.80000000000001,107.45,22.900000000000002,13.4,1,50.436303137629466
4.183300132670378,8.628441342444185,30.933800283831925,48.50670056806585,12.543922831395289,9.10494371207203,4.54972526643093,3.6742346141747673,17.5,74.45,956.9000000000001,2352.9,157.35000000000002,82.9,20.700000000000003,13.5,1,21.032418985653706
10.540398474441087,20.454828280872952,53.135675397984734,63.51338441620002,19.371370627810517,15.121177202850312,8.605230967266364,6.708203932499369,111.10000000000001,418.40000000000003,2823.4,4033.9500000000003,375.25,228.65,74.05,45.0,1,42.03473784090832
14.628738838327793,30.404769362716767,80.05185819204948,107.41857381291189,40.8295236318035,21.529050141610984,12.704329970525798,9.808159868191384,214.0,924.45,6408.3,11538.75,1667.0500000000002,463.5,161.4,96.2,1,66.5937667950171
17.412639087743134,34.489128721961066,82.78828419528936,92.06682355767467,35.17029997028743,20.59611613872868,13.63451502621197,10.823585357911675,303.2,1189.5,6853.900000000001,8476.300000000001,1236.95,424.20000000000005,185.9,117.15,1,81.42007119366943
25.88725555171888,52.44520950477746,102.99417459254673,114.7948169561675,65.47594978310738,39.33001398423347,21.624060673240816,15.57562197795003,670.1500000000001,2750.5,10607.800000000001,13177.85,4287.1,1546.8500000000001,467.6,242.60000000000002,1,92.89122939391805
25.43816031084009,52.75225113679984,96.64522750762191,102.40654275972801,43.98692987695322,32.68485887991564,18.903703340880064,16.54236984231703,647.1,2782.8,9340.300000000001,10487.1,1934.8500000000001,1068.3,357.35,273.65000000000003,1,99.81970105008432
13.654669530969983,18.609137540466513,68.1120400516678,52.80104165639159,28.594579905989175,21.222629431811693,12.605554331325537,8.885381252371786,186.45000000000002,346.3,4639.25,2787.9500000000003,817.6500000000001,450.40000000000003,158.9,78.95,1,82.37863377964486
9.505261700763425,8.099382692526634,31.295367069264422,52.55711179279166,19.17420141752975,6.507687761409578,19.595917942265423,6.789698078707183,90.35000000000001,65.60000000000001,979.4000000000001,2762.25,367.65000000000003,42.35,384.0,46.1,1,23.05038574396091
9.99499874937461,25.605663436044768,70.21716314406329,85.32994784950944,22.416511771459895,19.748417658131498,7.628892449104261,6.131883886702357,99.9,655.6500000000001,4930.450000000001,7281.200000000001,502.5,390.0,58.2,37.6,1,50.75626510666386
36.71511950137164,78.02884082183972,103.11983320389925,108.93782630473218,62.83191864013067,46.961686511453145,26.472627372438875,23.31951972061174,1348.0,6088.5,10633.7,11867.45,3947.8500000000004,2205.4,700.8000000000001,543.8000000000001,1,86.66849817398128
40.344764220404116,61.53129285168645,106.64825361908183,103.76174632300673,53.282736416216466,45.37234840737253,28.428858577157122,24.001041644062035,1627.7,3786.1000000000004,11373.85,10766.5,2839.05,2058.65,808.2,576.0500000000001,1,104.88404341149052
18.551280279269136,37.22297677510492,99.13702638267904,99.30256794262674,42.2119651283851,28.122055401410474,16.358484037342826,12.491997438360288,344.15000000000003,1385.5500000000002,9828.15,9861.0,1781.8500000000001,790.85,267.6,156.05,1,102.89264000088042
4.012480529547776,11.291589790636214,56.33116366630464,60.33987073237728,8.249242389456137,8.408329203831164,4.847679857416329,3.924283374069717,16.1,127.5,3173.2000000000003,3640.9,68.05,70.7,23.5,15.4,1,77.73409502449184
3.2093613071762426,3.892300091205713,33.92049527940298,21.66217902243447,15.625299997120056,4.852834223420372,5.522680508593631,2.3021728866442674,10.3,15.15,1150.6000000000001,469.25,244.15,23.55,30.5,5.300000000000001,1,45.1258294728538
3.63318042491699,6.457553716385176,14.046351839534706,22.051077071199945,12.662938047704412,6.34428877022476,7.176350047203662,3.4856850115866753,13.200000000000001,41.7,197.3,486.25,160.35000000000002,40.25,51.5,12.15,1,8.783857605933246
20.0037496485034,25.005999280172748,74.74389607185324,108.973620661149,26.37612556839992,18.986837546047525,15.20690632574555,11.918473056562238,400.15000000000003,625.3000000000001,5586.650000000001,11875.25,695.7,360.5,231.25,142.05,1,44.39512395569397
29.481350036930127,54.29318557609233,93.72486329677947,112.71978530852515,57.439968662944096,43.682376308987585,22.627416997969522,18.429595763336753,869.1500000000001,2947.75,8784.35,12705.75,3299.3500000000004,1908.15,512.0,339.65000000000003,1,84.23437968431635
32.190837205639745,59.04278109980932,98.23059604827816,81.92221920822213,40.92004398824615,38.805283145468735,24.46528152300725,21.40210270043577,1036.25,3486.05,9649.25,6711.25,1674.45,1505.8500000000001,598.5500000000001,458.05,1,95.97772967252881
23.357011795176195,48.51494615064516,85.76129663198896,87.173964003021,29.558416737031095,22.14610575247937,13.126309458488324,13.166244718977389,545.5500000000001,2353.7000000000003,7355.0,7599.3,873.7,490.45000000000005,172.3,173.35000000000002,1,91.99594634013354
14.291605927956452,29.68417086596828,62.08864630510155,76.55814783548514,23.413671220037237,15.995311813153252,10.702803371079934,8.224962005991275,204.25,881.1500000000001,3855.0,5861.150000000001,548.2,255.85000000000002,114.55000000000001,67.65,1,73.92497146854524
5.6258332716140815,11.390785749894517,47.61459860168938,43.92664339555209,13.285330255586423,8.209750300709517,5.389805191284746,3.420526275297414,31.650000000000002,129.75,2267.15,1929.5500000000002,176.5,67.4,29.05,11.700000000000001,1,54.85162245339546
6.328506932918696,13.091982279242513,39.31984231911415,31.17049887313323,18.095579570712843,11.307077429645558,5.296225070746145,8.845903006477066,40.050000000000004,171.4,1546.0500000000002,971.6,327.45000000000005,127.85000000000001,28.05,78.25,1,25.56754335465384
20.935615586841482,33.78239186321774,76.33970133554362,81.90482281282343,31.57768199219189,24.42232585156459,12.737739202856996,10.702803371079934,438.3,1141.25,5827.75,6708.400000000001,997.1500000000001,596.45,162.25,114.55000000000001,1,57.829771827328884
22.73873347396464,44.360455362856676,80.26175926305129,89.83317872590283,28.991378028648448,29.59053902854762,16.834488409215172,14.916433890176299,517.0500000000001,1967.8500000000001,6441.950000000001,8070.0,840.5,875.6,283.40000000000003,222.5,1,78.30073029929746
21.038060747131613,48.27421672072992,97.56049405368958,99.96374342730468,37.43794866175229,24.649543606322613,12.951833846988619,11.302654555457314,442.6,2330.4,9518.050000000001,9992.75,1401.6000000000001,607.6,167.75,127.75,1,88.91112665837043
11.273863579093016,28.450834785643814,82.97650269805303,88.92215696889049,28.454349403913632,16.01873902652765,10.054849576199537,8.191458966508957,127.10000000000001,809.45,6885.1,7907.150000000001,809.6500000000001,256.6,101.10000000000001,67.10000000000001,1,90.2684983758713
8.04673846971554,17.793257149830662,61.45486148385659,67.83877947015262,22.06241147291021,8.663140308225419,6.438167441127949,4.924428900898052,64.75,316.6,3776.7000000000003,4602.1,486.75,75.05,41.45,24.25,1,72.2156820909548
10.723805294763608,21.919169692303583,40.728368491752775,51.36438454805042,29.32319900692965,15.738487856207787,7.8230428862431785,6.603029607687671,115.0,480.45000000000005,1658.8000000000002,2638.3,859.85,247.70000000000002,61.2,43.6,1,26.946357139381995
15.628499608087784,34.994999642806114,74.19973045773145,104.85919129957088,47.70429750033009,22.0476756144497,11.13777356566383,9.573400649716902,244.25,1224.65,5505.6,10995.45,2275.7000000000003,486.1,124.05000000000001,91.65,1,57.46404947474211
23.3891000254392,49.734796671947905,77.28712700055553,105.48767700542088,35.05424368033063,36.70762863493091,18.52970588001871,15.440207252495027,547.0500000000001,2473.55,5973.3,11127.650000000001,1228.8000000000002,1347.45,343.35,238.4,1,75.74342872914349
19.267848867997692,38.78659562271481,58.8629764792777,93.96861178074305,45.97281805589037,32.90364721425271,14.914757792200314,12.198360545581526,371.25,1504.4,3464.8500000000004,8830.1,2113.5,1082.65,222.45000000000002,148.8,1,68.07505173991662
17.395401691251628,25.442091109026396,65.57209772456574,91.35589745604823,43.503448139199264,22.160776159692603,13.793114224133722,10.756393447619885,302.6,647.3000000000001,4299.7,8345.9,1892.5500000000002,491.1,190.25,115.7,1,62.21753710192172
15.29215485142627,23.681216184985093,31.0201547384922,8.23407554009556,7.826237921249264,5.860887304837042,19.542261895696722,13.485177047410241,233.85000000000002,560.8000000000001,962.25,67.8,61.25,34.35,381.90000000000003,181.85000000000002,2,18.546807559939303
13.856406460551018,22.978250586152114,24.65664210714833,7.269800547470337,12.694486992391619,8.916277250063503,39.53353007258522,7.419568720619818,192.0,528.0,607.95,52.85,161.15,79.5,1562.9,55.050000000000004,2,29.53789598414097
11.539064086831306,27.316661582265137,27.580790416519974,10.726136303441235,8.631338250816034,8.706319543871567,14.359665734271115,8.381527307120106,133.15,746.2,760.7,115.05000000000001,74.5,75.8,206.20000000000002,70.25,2,15.234334713929064
7.276675064890558,24.543838330627914,35.64196964254361,10.876580344942981,10.99090533122727,9.327379053088816,18.75233318816621,16.46815108019112,52.95,602.4,1270.3500000000001,118.30000000000001,120.80000000000001,87.0,351.65000000000003,271.2,2,16.55599946121866
24.1039415863879,29.77079105432034,26.742288608120287,6.164414002968976,8.935882720806042,13.903237033151669,18.172781845386247,15.62209973083004,581.0,886.3000000000001,715.1500000000001,38.0,79.85000000000001,193.3,330.25,244.05,2,15.49536900035886
5.6964901474504455,8.896628574915331,31.81823376619136,43.58784234164385,13.05181979648815,9.260129588726068,19.85572965166478,4.024922359499621,32.45,79.15,1012.4000000000001,1899.9,170.35000000000002,85.75,394.25,16.2,2,16.834383485765194
6.587867636800241,5.044799302251775,9.622889378975527,4.738143096192854,6.711929677819934,8.2915619758885,53.931437955982595,9.038805230781334,43.400000000000006,25.450000000000003,92.60000000000001,22.450000000000003,45.050000000000004,68.75,2908.6000000000004,81.7,2,30.697340609400356
8.811923740024081,12.457929201917949,10.21028892833107,6.131883886702357,8.83742043811428,7.0710678118654755,44.80401767698964,9.492101980067428,77.65,155.20000000000002,104.25,37.6,78.10000000000001,50.0,2007.4,90.10000000000001,2,49.367727816486116
26.8858698947979,36.834087473426024,33.047692809029805,17.484278652549552,26.906318960422663,15.483862567202022,62.475195077726646,26.780589986032794,722.85,1356.75,1092.15,305.7,723.95,239.75,3903.15,717.2,2,53.63960637735814
10.457055034760025,20.087309426600665,24.73459116298468,19.266551326067674,40.46788850434379,26.603571188846058,66.46502839839911,32.92339593662841,109.35000000000001,403.5,611.8000000000001,371.20000000000005,1637.65,707.75,4417.6,1083.95,2,64.47011173806288
4.505552130427524,9.211405973031479,9.348796714016196,5.054700782440045,10.485704554296769,10.807404868885037,28.41302518212378,7.409453421137082,20.3,84.85000000000001,87.4,25.55,109.95,116.80000000000001,807.3000000000001,54.900000000000006,2,47.439026790261444
30.750609750052114,20.53655277791285,16.844880527923017,20.859050793360662,24.699190270128287,9.030503861911582,29.223278392404914,43.45399866525519,945.6,421.75,283.75,435.1,610.0500000000001,81.55000000000001,854.0,1888.25,2,20.56247947300371
14.803715749770394,24.290944814889354,24.0249869927124,44.286002303210886,26.75070092539633,11.30044246921332,49.26205436235887,26.009613607279906,219.15,590.0500000000001,577.2,1961.25,715.6,127.7,2426.75,676.5,2,39.242666377381894
9.927235264664578,24.686028437154487,15.233187453714342,4.832183771339828,7.224956747275377,7.22841614740048,27.426264783962107,13.992855319769443,98.55000000000001,609.4,232.05,23.35,52.2,52.25,752.2,195.8,2,18.037482054068988
11.430223094935636,24.415159225366523,36.033317915507034,19.211975432005946,11.20937107959229,8.243178998420452,33.429777145532995,24.194007522525077,130.65,596.1,1298.4,369.1,125.65,67.95,1117.55,585.35,2,30.428020964747553
9.979979959899719,20.247222031676344,16.09347693943108,12.105783741666626,9.757048734120374,6.700746227100382,29.119581040942194,9.894442884771228,99.60000000000001,409.95000000000005,259.0,146.55,95.2,44.900000000000006,847.95,97.9,2,31.274679093237594
10.977249200050075,18.433664855367205,17.47998855834866,13.765899897936205,9.063663718386731,7.810249675906654,18.828170383762732,5.8395205282625735,120.5,339.8,305.55,189.5,82.15,61.0,354.5,34.1,2,16.52042039365731
16.80773631397161,44.32268042436062,41.51565969607131,36.317351224999875,19.222382786741086,10.509519494249012,29.049096371488048,17.621010186706094,282.5,1964.5,1723.5500000000002,1318.95,369.5,110.45,843.85,310.5,2,23.938633377625386
13.671137480107499,33.41257248402164,32.70091741832329,23.213142829009605,20.29901475441604,10.370631610466162,24.90783009416918,21.60671192014185,186.9,1116.4,1069.3500000000001,538.85,412.05,107.55000000000001,620.4000000000001,466.85,2,26.978463232828613
29.97332147093478,30.670017932828145,18.371173070873837,6.967783004657938,9.5420123663722,5.176871642217914,20.82186350930195,28.74978260787375,898.4000000000001,940.6500000000001,337.5,48.550000000000004,91.05000000000001,26.8,433.55,826.5500000000001,2,15.129247131986403
32.61671350703501,38.54867053479276,57.24115652220874,28.138940989312303,13.403357788255898,9.391485505499118,26.922109872742144,52.78494103435183,1063.8500000000001,1486.0,3276.55,791.8000000000001,179.65,88.2,724.8000000000001,2786.25,2,23.871986691022045
12.601587201618692,20.437710243566915,42.41403069740012,24.699190270128287,17.61249556422939,10.285912696499032,24.42027845869084,24.326939799325356,158.8,417.70000000000005,1798.95,610.0500000000001,310.20000000000005,105.80000000000001,596.35,591.8000000000001,2,18.63956377591255
6.024948132556827,6.192737682156414,14.690132742763083,11.610340218959994,14.078352176302452,10.312613635737547,24.534669347680236,7.912016177940993,36.300000000000004,38.35,215.8,134.8,198.20000000000002,106.35000000000001,601.95,62.6,2,15.14613650793707
16.034338152851834,26.07009781339533,19.72941965694886,6.276941930590086,7.810249675906654,8.455767262643882,33.23702754459249,23.21745033374681,257.1,679.6500000000001,389.25,39.400000000000006,61.0,71.5,1104.7,539.0500000000001,2,28.88584844613636
21.614809737770074,37.77962413788681,35.742831449117176,37.961164365704064,32.24127789030702,14.946571513226704,49.317339749828356,30.893364983439405,467.20000000000005,1427.3000000000002,1277.5500000000002,1441.0500000000002,1039.5,223.4,2432.2000000000003,954.4000000000001,2,41.27718364721042
29.771630791745352,36.69741135284613,42.68079193267154,43.88051959582977,31.8841653489628,8.697700845625814,17.414074767267998,8.511756575466665,886.35,1346.7,1821.65,1925.5,1016.6,75.65,303.25,72.45,2,33.36570725854817
31.89357302028106,6.715653356152326,6.752777206453653,6.4265076052238514,8.590692637965812,8.473488065725943,22.964102420952578,15.633297796690243,1017.2,45.1,45.6,41.300000000000004,73.8,71.8,527.35,244.4,2,17.720039668304658
21.319005605327842,6.682065548915245,7.762087348130012,4.604345773288535,10.146427942877237,7.874007874011811,12.419742348374221,16.91449082887215,454.5,44.650000000000006,60.25,21.200000000000003,102.95,62.0,154.25,286.1,2,17.6919223846634
15.31012736720371,21.297887219158618,7.385797181076664,5.818075283115543,7.968688725254614,8.763560920082657,52.26710246416956,18.334393908717026,234.4,453.6,54.550000000000004,33.85,63.5,76.80000000000001,2731.8500000000004,336.15000000000003,2,30.879602222118493
18.230469001098136,16.767528142215834,17.738376475878507,5.830951894845301,7.78138805098422,7.582875444051551,21.56501796892365,18.01388353465182,332.35,281.15000000000003,314.65000000000003,34.0,60.550000000000004,57.5,465.05,324.5,2,36.916060216546605
6.629479617586889,19.283412561058793,21.71520204833471,9.91463564635635,10.014988766843425,9.803060746521975,41.11143393266647,15.152557539900648,43.95,371.85,471.55,98.30000000000001,100.30000000000001,96.10000000000001,1690.15,229.60000000000002,2,31.338225950795064
33.30915789989294,13.535139452550904,9.20869154657707,7.978095010715277,10.387492478938313,6.670832032063167,26.34293074052316,8.249242389456137,1109.5,183.20000000000002,84.80000000000001,63.650000000000006,107.9,44.5,693.95,68.05,2,19.418464649915773
24.40491753725056,23.070543990118654,16.18177987738061,13.722244714331545,8.200609733428363,6.172519744804386,17.977764043395386,25.243811122728676,595.6,532.25,261.85,188.3,67.25,38.1,323.20000000000005,637.25,2,22.160347391959274
4.0,18.214005600086985,11.859595271340417,7.483314773547883,6.363961030678928,5.123475382979799,16.831518053936787,12.72399308393399,16.0,331.75,140.65,56.0,40.5,26.25,283.3,161.9,2,16.845616677012078
6.507687761409578,6.488451279003334,6.264982043070834,3.7080992435478315,11.543396380615196,8.52936105461599,19.916073910286634,20.42547429069886,42.35,42.1,39.25,13.75,133.25,72.75,396.65000000000003,417.20000000000005,2,16.415590671528495
6.442049363362563,11.723907198540937,11.476062042355817,4.511097427455985,8.237111144084436,5.932958789676531,26.575364531836623,16.454482671904334,41.5,137.45000000000002,131.70000000000002,20.35,67.85000000000001,35.2,706.25,270.75,2,23.24571922106163
4.61519230368573,10.16366075781753,7.677890335241837,12.224974437601086,11.83427226321923,5.643580423808985,33.00151511673366,11.84271928232701,21.3,103.30000000000001,58.95,149.45000000000002,140.05,31.85,1089.1000000000001,140.25,2,26.77755180560171
7.9435508432942,14.53100134195851,19.78383178254405,20.03746490951388,18.433664855367205,8.757853618324527,69.65450452052616,35.93674999217375,63.1,211.15,391.40000000000003,401.5,339.8,76.7,4851.75,1291.45,2,51.32800981862991
3.8144462245521304,11.813128290169374,27.725439581727105,21.460428700284623,24.562166028263874,7.516648189186454,19.877122528172936,18.938056922503954,14.55,139.55,768.7,460.55,603.3000000000001,56.5,395.1,358.65000000000003,2,44.76581352434955
6.135959582656978,14.881196188478935,20.310096011589902,7.372245248226622,9.14603739331958,8.218880702382776,28.97412638890084,20.21509337104333,37.65,221.45000000000002,412.5,54.35,83.65,67.55,839.5,408.65000000000003,2,23.429937452763575
5.495452665613635,15.22990479287379,10.784247771634329,14.044571905188139,12.808200498118383,8.523496934944014,22.95539152356152,15.770225109363532,30.200000000000003,231.95000000000002,116.30000000000001,197.25,164.05,72.65,526.95,248.70000000000002,2,25.96475895623118
7.389181280764467,14.91140503104922,18.837462674150146,9.947361459201128,10.360984509205677,7.625614729318548,51.6788157759057,11.486949116279744,54.6,222.35000000000002,354.85,98.95,107.35000000000001,58.150000000000006,2670.7000000000003,131.95000000000002,2,32.44905992115399
4.236744032862972,17.977764043395386,17.026450011673013,10.03493896344168,11.397368117245314,8.273451516749223,39.85536350354868,9.484197383015603,17.95,323.20000000000005,289.90000000000003,100.7,129.9,68.45,1588.45,89.95,2,45.76708963972719
15.618898808814915,37.76638717166364,20.460938394902616,26.746027742451776,15.918542646863123,8.61974477580398,6.176568626672903,7.273238618387272,243.95000000000002,1426.3000000000002,418.65000000000003,715.35,253.4,74.3,38.15,52.900000000000006,3,25.851873518214994
53.995370171895296,70.28513356322232,42.2119651283851,62.80366231359442,51.84447897317515,15.924823389915506,12.67280552995271,14.609928131240071,2915.5,4940.0,1781.8500000000001,3944.3,2687.8500000000004,253.60000000000002,160.60000000000002,213.45000000000002,3,54.02576036744298
59.77039400907442,82.86283847419179,33.34966266695962,63.63450321955849,59.31610236689528,14.04813154835902,14.951588544365444,21.295539439046856,3572.5,6866.25,1112.2,4049.3500000000004,3518.4,197.35000000000002,223.55,453.5,3,76.57398601870705
62.27840717295201,68.49525531013079,19.30673457630782,42.76973228814976,21.807108932639373,9.792854537876073,17.787636155487327,8.276472678623424,3878.6000000000004,4691.6,372.75,1829.25,475.55,95.9,316.40000000000003,68.5,3,75.6790468921613
25.13165334791963,42.66263001738172,20.517066067057442,50.373107904912914,40.297642610951826,13.756816492197604,10.52853266129711,10.124228365658293,631.6,1820.1000000000001,420.95000000000005,2537.4500000000003,1623.9,189.25,110.85000000000001,102.5,3,30.541363868496113
25.147564494399848,68.4178339323893,45.29403934294225,59.85774803649065,36.278781677448876,13.449907062875937,12.235195135346228,16.211107303327555,632.4000000000001,4681.0,2051.55,3582.9500000000003,1316.15,180.9,149.70000000000002,262.8,3,55.540231974885515
44.01533823566508,51.74311548409121,36.287738976133525,71.88602089419055,61.13795874904559,11.552056094046634,12.296340919151518,17.412639087743134,1937.3500000000001,2677.3500000000004,1316.8000000000002,5167.6,3737.8500000000004,133.45000000000002,151.20000000000002,303.2,3,60.08047470824026
16.772000476985447,42.32847741178508,31.877107773447705,68.44888603914603,54.487154449466345,10.79814798935447,10.067273712381123,11.20937107959229,281.3,1791.7,1016.1500000000001,4685.25,2968.8500000000004,116.60000000000001,101.35000000000001,125.65,3,37.61188291410667
18.145247311624054,25.065913109240604,24.46732515008537,53.533167289074164,35.17385392589217,15.679604586851035,10.13903348450926,11.77497346069196,329.25,628.3000000000001,598.65,2865.8,1237.2,245.85000000000002,102.80000000000001,138.65,3,22.381814356416406
28.93181639648641,37.917014650417826,32.56224807963971,64.46355559539049,46.722050468702676,18.20851449185243,20.800240383226342,21.368200672962615,837.0500000000001,1437.7,1060.3,4155.55,2182.9500000000003,331.55,432.65000000000003,456.6,3,31.491463879829215
17.277152543170995,31.872401854896346,30.033314835362415,79.03037390775778,79.08065503016525,21.282622018914868,11.20267825120404,10.606601717798213,298.5,1015.85,902.0,6245.8,6253.75,452.95000000000005,125.5,112.5,3,22.47359337398219
29.09295447354909,34.09472099900511,39.11968813781623,71.21130528223732,69.70401710088164,15.954623154433953,16.2511538051918,16.90266251216062,846.4000000000001,1162.45,1530.3500000000001,5071.05,4858.650000000001,254.55,264.1,285.7,3,32.98356142695073
10.51189802081432,34.41002760824234,21.33658829335187,44.17918061711874,30.260535355475785,8.96102672688794,11.148990985734986,15.00999666888704,110.5,1184.05,455.25,1951.8000000000002,915.7,80.30000000000001,124.30000000000001,225.3,3,27.572028803628022
10.519030373565807,31.44041984452498,21.89977168830762,36.80421171550886,38.269439504649135,7.039176088151226,14.096098751072937,17.94993036198191,110.65,988.5,479.6,1354.5500000000002,1464.5500000000002,49.550000000000004,198.70000000000002,322.20000000000005,3,32.92522372638366
11.379806676741042,28.912799933593426,15.0449327017438,31.43962467969362,27.902508847772094,15.907545379473227,7.473285756613352,6.256996084384263,129.5,835.95,226.35000000000002,988.45,778.5500000000001,253.05,55.85,39.150000000000006,3,20.497922953594003
28.380451018262555,66.2299026120377,30.7514227313144,52.31443395469361,68.1281879988012,15.349267083479914,12.449899597988733,7.429670248402684,805.45,4386.400000000001,945.6500000000001,2736.8,4641.45,235.60000000000002,155.0,55.2,3,47.57135127281557
49.26205436235887,66.85095362072256,34.178940884702676,49.17418021685771,49.92744736114595,16.431676725154983,10.495237014951115,13.629013170439011,2426.75,4469.05,1168.2,2418.1,2492.75,270.0,110.15,185.75,3,66.54042811638013
61.72236223606482,98.32014035791447,27.828043409481737,55.38546740797626,30.763614872118,12.267844146385297,9.055385138137417,13.238202294873727,3809.65,9666.85,774.4000000000001,3067.55,946.4000000000001,150.5,82.0,175.25,3,82.58554698931852
23.170023737579555,42.802453200722034,22.445489524623873,14.524117873385633,7.466592261534039,7.297259759663212,14.968299836654797,8.034301463101817,536.85,1832.0500000000002,503.8,210.95000000000002,55.75,53.25,224.05,64.55,3,70.56129677931825
15.774980190161887,29.027573098693594,42.06007608171911,76.24368826335726,26.17632518135424,15.803480629279107,11.262770529492288,12.443873994861889,248.85000000000002,842.6,1769.0500000000002,5813.1,685.2,249.75,126.85000000000001,154.85000000000002,3,25.717022688962885
28.774120316701257,40.78786584267434,30.92086674076262,58.513246363537206,58.12787627292089,16.644819013735177,10.2810505299799,12.891857895586655,827.95,1663.65,956.1,3423.8,3378.8500000000004,277.05,105.7,166.20000000000002,3,29.298285789457346
26.360955976595385,49.70261562533706,28.635642126552707,54.230065461881935,27.572631357924475,15.7797338380595,11.99374837154757,17.33060876022536,694.9000000000001,2470.3500000000004,820.0,2940.9,760.25,249.0,143.85,300.35,3,45.245240734005705
32.59831283977746,22.16303228351211,20.71352215341466,34.3693177121688,31.295367069264422,9.762171889492624,8.212794895770866,11.31812705353673,1062.65,491.20000000000005,429.05,1181.25,979.4000000000001,95.30000000000001,67.45,128.1,3,35.932823954424585
22.356207191739838,34.49637662132068,51.41254710671316,65.18665507601997,29.70101008383385,15.868207208125309,12.21065108829173,18.91163662933486,499.8,1190.0,2643.25,4249.3,882.1500000000001,251.8,149.1,357.65000000000003,3,25.783409456008595
24.05514497981669,34.6135811496008,29.872227904861735,51.04654738569495,25.536248745655655,16.78987790307005,18.84542384771433,17.542804792848834,578.65,1198.1000000000001,892.35,2605.75,652.1,281.90000000000003,355.15000000000003,307.75,3,34.55497888546074
15.106290080625355,39.485440354642115,26.304942501362746,53.31838332132736,33.60505914293263,6.0332412515993425,6.284902544988268,5.656854249492381,228.20000000000002,1559.1000000000001,691.95,2842.8500000000004,1129.3,36.4,39.5,32.0,3,29.982349076846667
25.662229053611068,32.134872024017774,40.14224707213088,66.00378777009695,39.322385482063524,14.637281168304447,13.518505834595775,13.896042602122375,658.5500000000001,1032.65,1611.4,4356.5,1546.25,214.25,182.75,193.10000000000002,3,35.810156189329945
24.241493353339436,42.51646739793888,32.97271599368181,51.41740950300783,42.50999882380614,13.95886814895821,13.509256086106296,12.23315167894194,587.65,1807.65,1087.2,2643.75,1807.1000000000001,194.85000000000002,182.5,149.65,3,37.32566971097833
20.402205763103165,42.527638072199586,37.92558503174341,74.09116006650186,40.59310286243218,14.359665734271115,15.88238017426859,12.461942063739505,416.25,1808.6000000000001,1438.3500000000001,5489.5,1647.8000000000002,206.20000000000002,252.25,155.3,3,28.820273231024817
22.420972325035326,30.849635330097502,34.36713546398652,64.34555151679096,38.00065788904187,12.573782247199924,10.014988766843425,9.047098982546835,502.70000000000005,951.7,1181.1000000000001,4140.35,1444.0500000000002,158.10000000000002,100.30000000000001,81.85000000000001,3,36.688636701148546
10.705138952858109,26.68707552355634,22.721135535003526,55.71130944431301,24.072806234421446,9.39946807005588,7.00713921654194,7.42630459919333,114.60000000000001,712.2,516.25,3103.75,579.5,88.35000000000001,49.1,55.150000000000006,3,21.206425272101587
18.513508581573618,29.66563668624019,55.22906843320825,78.75436495839453,56.410991836697924,15.226621424334422,12.497999839974394,10.220078277586722,342.75,880.0500000000001,3050.25,6202.25,3182.2000000000003,231.85000000000002,156.20000000000002,104.45,3,28.176356104898268
14.708840878872815,22.58982071642004,49.93896274453445,73.85763332249417,39.39479661072005,15.142654985173506,17.45279347267938,13.128213892224638,216.35000000000002,510.3,2493.9,5454.950000000001,1551.95,229.3,304.6,172.35000000000002,3,26.127728701330113
42.61455150532503,28.43765109849968,47.739920402112105,70.5900134579956,26.830952275310693,17.542804792848834,8.514693182963201,10.49047186736612,1816.0,808.7,2279.1,4982.950000000001,719.9000000000001,307.75,72.5,110.05000000000001,4,42.2412287237227
24.779023386727733,25.300197627686625,54.46466744596904,81.09993834769543,22.204729226000484,9.354143466934854,7.113367697511496,7.854934754662192,614.0,640.1,2966.4,6577.200000000001,493.05,87.5,50.6,61.7,4,75.8449759028455
10.86047881080756,20.52802961806125,58.75457429000741,59.37255258113803,21.001190442448735,10.805091392487155,5.224940191045253,6.336402764976355,117.95,421.40000000000003,3452.1000000000004,3525.1000000000004,441.05,116.75,27.3,40.150000000000006,4,70.23624546441673
13.512956745287095,10.067273712381123,25.781776509775273,26.28022069922549,21.3283848427395,8.10246875958186,3.8275318418009276,3.024896692450835,182.60000000000002,101.35000000000001,664.7,690.6500000000001,454.90000000000003,65.65,14.65,9.15,4,42.82638664018176
36.79945651772591,17.504285189632853,54.874857630794814,64.373131040831,24.423349483639626,11.504347004502254,7.035623639735144,10.709808588392232,1354.2,306.40000000000003,3011.25,4143.900000000001,596.5,132.35,49.5,114.7,4,46.7025050353074
34.04849482723135,25.326863208853954,53.69962755922987,91.92388155425118,25.170419146291543,11.178103595869919,6.284902544988268,13.238202294873727,1159.3,641.45,2883.65,8450.0,633.5500000000001,124.95,39.5,175.25,4,78.14850629754109
16.28189178197669,21.33775995740884,44.86646854834911,65.23227728663166,21.235583344942516,8.777812939451376,5.338539126015656,7.003570517957251,265.1,455.3,2013.0,4255.25,450.95000000000005,77.05000000000001,28.5,49.050000000000004,4,78.57807942044141
10.166120203892929,9.889388252060893,16.71227094083865,25.782746168707476,14.371847480404181,11.700427342623003,4.012480529547776,6.5038450166036395,103.35000000000001,97.80000000000001,279.3,664.75,206.55,136.9,16.1,42.300000000000004,4,45.507511727669566
12.255610959882823,6.971370023173351,14.342245291445828,38.175253764709936,19.22888452302941,7.905694150420948,3.383784863137726,2.3979157616563596,150.20000000000002,48.6,205.70000000000002,1457.3500000000001,369.75,62.5,11.450000000000001,5.75,4,31.978999966708706
24.06969048409223,13.315404612703288,25.71089263327899,54.5875443668242,20.848261318392957,7.314369419163897,7.429670248402684,9.316651759081692,579.35,177.3,661.0500000000001,2979.8,434.65000000000003,53.5,55.2,86.80000000000001,4,35.676790732836885
31.71356176779896,26.943459317615474,68.12928885582177,76.1892380851784,23.69177072318572,16.661332479726823,9.069178573608527,12.751470503436064,1005.75,725.95,4641.6,5804.8,561.3000000000001,277.6,82.25,162.60000000000002,4,65.3883912260013
18.646715528478467,26.04611295375953,62.284829613638664,61.07290725026933,19.266551326067674,15.880806024884253,7.032069396699666,7.334848328356899,347.70000000000005,678.4000000000001,3879.4,3729.9,371.20000000000005,252.20000000000002,49.45,53.800000000000004,4,68.63107266772387
23.205602771744587,25.422431040323424,55.859197989230026,40.71179190357506,22.15851980616034,9.72111104761179,4.9396356140913875,9.646242791885346,538.5,646.3000000000001,3120.25,1657.45,491.0,94.5,24.400000000000002,93.05000000000001,4,50.8923495769222
11.985407794480754,10.188228501560022,17.621010186706094,45.56588636249711,15.295424152340464,9.497368056467012,4.620606020859169,7.694153624668538,143.65,103.80000000000001,310.5,2076.25,233.95000000000002,90.2,21.35,59.2,4,28.768342081906724
41.07797463361601,22.903056564572335,54.283514993043696,74.39993279566858,25.35941639707034,11.655470818461174,6.859300255857007,12.704329970525798,1687.4,524.5500000000001,2946.7000000000003,5535.35,643.1,135.85,47.050000000000004,161.4,4,59.98290957908284
31.318524869476214,21.73476477903545,63.74833331154627,58.45810465624078,15.902829936838286,11.058933040759403,6.48459713474939,7.6452599694189605,980.85,472.40000000000003,4063.8500000000004,3417.3500000000004,252.9,122.30000000000001,42.050000000000004,58.45,4,66.42901872595468
10.00499875062461,24.142286552851616,58.33523806414096,52.79204485526205,20.16556470818509,9.99499874937461,4.743416490252569,5.572252686302013,100.10000000000001,582.85,3403.0,2787.0,406.65000000000003,99.9,22.5,31.05,4,55.62507475575141
41.05362346979862,13.30413469565007,56.905184298093616,56.503097260238754,23.20991167583367,9.343446901438462,6.04979338490167,7.768526243760782,1685.4,177.0,3238.2000000000003,3192.6000000000004,538.7,87.30000000000001,36.6,60.35,4,37.921734771037244
32.59754591990016,34.29431439757908,65.31232655479361,55.28245653007833,17.94853754488092,12.134661099511597,7.736278174936576,8.363611660042569,1062.6000000000001,1176.1000000000001,4265.7,3056.15,322.15000000000003,147.25,59.85,69.95,4,55.89277689515854
31.168092658999846,19.07747362729143,49.74334126292684,70.81136914366223,23.896652485233155,11.171392035015153,7.739509028355739,9.1706052144883,971.45,363.95000000000005,2474.4,5014.25,571.0500000000001,124.80000000000001,59.900000000000006,84.10000000000001,4,63.04691283687028
14.998333240730451,24.95996794869737,52.80198859891548,40.82401254164024,24.13192905674969,13.207952150125317,5.449770637375485,5.692099788303083,224.95000000000002,623.0,2788.05,1666.6000000000001,582.35,174.45000000000002,29.700000000000003,32.4,4,55.81769084265124
2.932575659723036,8.133265027035575,18.553975315279473,28.6041954964652,26.71703576372199,9.513148795220223,4.0,2.7202941017470885,8.6,66.15,344.25,818.2,713.8000000000001,90.5,16.0,7.4,4,34.71410401905272
36.80624946934963,21.766947420343534,54.31620384378864,64.22655214161819,30.72051431861127,13.714955340794953,9.08845421400141,10.768008172359455,1354.7,473.8,2950.25,4125.05,943.75,188.10000000000002,82.60000000000001,115.95,4,44.82399988969525
31.301757139176708,29.024127893874777,75.04498650809393,87.82539496068321,21.16955360889785,15.05988047761336,9.297849213662266,14.474114826130128,979.8000000000001,842.4000000000001,5631.75,7713.3,448.15000000000003,226.8,86.45,209.5,4,76.0259735511507
23.719190542680835,29.162475889402806,66.86217166679528,70.78276626411262,33.77721125255903,12.36931687685298,8.514693182963201,9.35147047260483,562.6,850.45,4470.55,5010.200000000001,1140.9,153.0,72.5,87.45,4,79.30408061239791
30.293563672833212,28.154040562590655,57.53390304855043,47.28530427098889,19.493588689617926,10.853570840972107,5.319774431308154,8.034301463101817,917.7,792.6500000000001,3310.15,2235.9,380.0,117.80000000000001,28.3,64.55,4,59.034035267550756
35.06066171651642,27.975882470442286,61.72519744804386,38.69496091224282,16.138463371709214,13.082430966758434,6.244997998398398,12.461942063739505,1229.25,782.6500000000001,3810.0,1497.3000000000002,260.45,171.15,39.0,155.3,4,33.03460944652696
42.44525886362339,36.94116944548453,72.35329985563892,37.74519837012385,19.491023574969066,13.65283853270081,6.833739825307955,14.124446891825535,1801.6000000000001,1364.65,5235.0,1424.7,379.90000000000003,186.4,46.7,199.5,4,38.22007964118334
36.742346141747674,35.005713819318125,71.68716761038897,44.307448583731386,36.526018124071506,28.880789462893844,8.677557259966655,13.850992744204294,1350.0,1225.4,5139.05,1963.15,1334.15,834.1,75.3,191.85000000000002,4,41.02632347692762
23.954122818421048,17.64652940382329,41.87242529398076,31.800943382233175,18.776314867406757,13.69854006819705,4.69041575982343,6.511528238439882,573.8000000000001,311.40000000000003,1753.3000000000002,1011.3000000000001,352.55,187.65,22.0,42.400000000000006,4,38.054195982982286
6.610597552415364,18.688231591030757,45.896622969451684,37.078969780726105,16.835973390332974,6.640783086353597,4.806245936279167,4.979959839195493,43.7,349.25,2106.5,1374.8500000000001,283.45,44.1,23.1,24.8,4,22.466952267694154
59.0237240438114,21.066561181170506,39.9668612728095,73.20040983491828,23.266929320389487,8.73212459828649,6.008327554319921,12.45391504708459,3483.8,443.8,1597.3500000000001,5358.3,541.35,76.25,36.1,155.10000000000002,4,47.49573152244708
45.05940523353587,23.25510696599781,60.70255348830064,89.22331533853693,20.721969018411354,12.397580409095962,6.697014260101288,7.57957782465488,2030.3500000000001,540.8000000000001,3684.8,7960.8,429.40000000000003,153.70000000000002,44.85,57.45,4,81.2118625867276
25.023988491045948,23.5457002444183,59.69589600634201,61.3750763746979,16.35236985883086,10.552250944703694,6.016643582596529,6.985699678629192,626.2,554.4,3563.6000000000004,3766.9,267.40000000000003,111.35000000000001,36.2,48.800000000000004,4,75.29919585661742
19.43579172557681,18.420097719610503,37.265936188428164,40.68537820888482,17.406895185529212,8.148619514985345,3.521363372331802,5.389805191284746,377.75,339.3,1388.75,1655.3000000000002,303.0,66.4,12.4,29.05,4,51.03022729179136
3.331666249791536,6.387487769068525,12.513992168768526,23.288409134159423,10.583005244258363,8.264381404557755,3.866522985836241,3.263433774416144,11.100000000000001,40.800000000000004,156.60000000000002,542.35,112.0,68.3,14.950000000000001,10.65,4,21.64795386421826
15.114562514343575,7.286974680894672,16.995587662684688,40.80012254883556,16.332482971061076,8.40535543567314,3.646916505762094,8.194510357550353,228.45000000000002,53.1,288.85,1664.65,266.75,70.65,13.3,67.15,4,32.04426584149749
48.52473596012656,24.238399287081645,68.2975109356117,83.03884633109976,22.433234274174556,13.910427743243556,7.516648189186454,10.057335631269348,2354.65,587.5,4664.55,6895.450000000001,503.25,193.5,56.5,101.15,4,61.91948443996766
22.313672938357772,19.404896289338936,56.340039048619765,85.77033286632388,33.92049527940298,14.539601094940673,5.674504383644443,9.99499874937461,497.90000000000003,376.55,3174.2000000000003,7356.55,1150.6000000000001,211.4,32.2,99.9,4,84.40458959871182
6.135959582656978,9.08019823572151,18.527007313648905,37.35371467471475,17.419816302131316,9.284395510748128,3.687817782917155,2.9154759474226504,37.65,82.45,343.25,1395.3000000000002,303.45,86.2,13.600000000000001,8.5,4,61.56202377051932
4.312771730569565,8.714929718592114,7.940403012442126,22.45996438109375,18.95521036549054,8.558621384311845,3.2326459750489227,2.9748949561287032,18.6,75.95,63.050000000000004,504.45000000000005,359.3,73.25,10.450000000000001,8.85,4,29.906839527904253
8.18535277187245,9.211405973031479,23.785499784532593,26.945314991664134,39.898621530072944,11.573677030226824,3.391164991562634,3.6124783736376886,67.0,84.85000000000001,565.75,726.0500000000001,1591.9,133.95000000000002,11.5,13.05,4,24.702639686378944
29.025850547399983,25.6378626254218,65.86007895531253,52.17614397404239,16.774981371077583,11.84271928232701,6.591661399070799,9.604686356149273,842.5,657.3000000000001,4337.55,2722.3500000000004,281.40000000000003,140.25,43.45,92.25,4,39.18148636219469
27.13853349022382,40.58139968014903,72.22880311897741,67.36022565282869,25.468608128439215,13.957077057894322,20.274368054269903,11.85537852622176,736.5,1646.8500000000001,5217.0,4537.400000000001,648.6500000000001,194.8,411.05,140.55,4,59.76818481343554
17.53425219392033,17.887146222916613,40.96767018027752,42.34796335126401,20.600970850908944,13.709485767161363,7.395944834840239,8.564461454172118,307.45000000000005,319.95000000000005,1678.3500000000001,1793.3500000000001,424.40000000000003,187.95000000000002,54.7,73.35000000000001,4,54.85409450204635
32.09828655863113,19.45379140424817,46.897761140591776,44.41002139157332,22.436577279077127,7.968688725254614,6.7638746292343415,9.625487000666512,1030.3,378.45000000000005,2199.4,1972.25,503.40000000000003,63.5,45.75,92.65,4,30.692501491068857
43.30127018922193,19.464069461446133,45.28023851527286,39.923050985614815,22.247471766472703,11.88696765369537,6.148170459575759,10.227414140436476,1875.0,378.85,2050.3,1593.8500000000001,494.95000000000005,141.3,37.800000000000004,104.60000000000001,4,42.166536188594065
31.971080682391705,16.963195453687373,52.707210132959986,52.87910740547726,19.9949993748437,14.300349646075091,5.661271941887264,6.135959582656978,1022.1500000000001,287.75,2778.05,2796.2000000000003,399.8,204.5,32.050000000000004,37.65,4,46.40107919554603
13.809417076763232,10.346496991735899,26.16772821625905,20.777391559096152,16.343194302216443,11.083771921146699,5.0,5.123475382979799,190.70000000000002,107.05000000000001,684.75,431.70000000000005,267.1,122.85000000000001,25.0,26.25,4,36.82824948228671
43.716701613914104,11.146748404803978,51.717018475546325,45.881913647972446,17.98193537970816,8.452810183601665,4.08656334834051,8.464632301523794,1911.15,124.25,2674.65,2105.15,323.35,71.45,16.7,71.65,4,26.98447014781737
32.589875728514215,11.687600266949584,40.024992192379,51.341016741003486,14.549914089093447,7.648529270389178,4.949747468305833,7.694153624668538,1062.1000000000001,136.6,1602.0,2635.9,211.70000000000002,58.5,24.5,59.2,4,48.61146519448796
16.268066879626478,14.949916387726054,38.04011040993441,42.10878768143296,16.42102311063473,9.57601169589929,3.7416573867739413,5.152669211195301,264.65000000000003,223.5,1447.0500000000002,1773.15,269.65000000000003,91.7,14.0,26.55,4,46.72490221121822
16.158589047314745,12.617448236470002,33.139855159611066,30.348805577814755,16.7973212150033,7.612489737267302,4.538722287164087,4.598912915026768,261.1,159.20000000000002,1098.25,921.0500000000001,282.15000000000003,57.95,20.6,21.150000000000002,4,36.22879662962386
48.991836054591786,22.585393509965684,57.34413657907842,46.671725916233264,21.327212663637038,14.776670802315385,8.476437931112336,7.937253933193772,2400.2000000000003,510.1,3288.3500000000004,2178.25,454.85,218.35000000000002,71.85000000000001,63.0,4,31.494447394156992
25.058930543820104,22.364033625444225,71.38207057798198,75.08328708840604,20.67244542863761,10.986355173577815,6.572670690061994,6.48459713474939,627.95,500.15000000000003,5095.400000000001,5637.5,427.35,120.7,43.2,42.050000000000004,4,60.87750650231965
6.98212002188447,15.923253436405513,41.4981927317323,38.6367700513384,17.57270610919104,8.980534505250787,5.239274758971894,5.2583267300539625,48.75,253.55,1722.1000000000001,1492.8000000000002,308.8,80.65,27.450000000000003,27.650000000000002,4,56.86002856987222
25.45584412271571,13.69854006819705,46.89083066016212,72.8138036363985,17.032322213955442,9.200543462209176,4.806245936279167,7.546522377890362,648.0,187.65,2198.75,5301.85,290.1,84.65,23.1,56.95,4,45.50223028945306
22.76510487566442,33.142872536942235,49.64876634922564,57.87745675131208,14.51895313030523,15.466091943344964,6.082762530298219,13.03456942135029,518.25,1098.45,2465.0,3349.8,210.8,239.20000000000002,37.0,169.9,4,65.3456301938553
33.34666400106613,23.46699810372004,65.55532015023647,55.00454526673228,20.861447696648476,9.494735383358506,6.606814663663572,7.44983221287567,1112.0,550.7,4297.5,3025.5,435.20000000000005,90.15,43.650000000000006,55.5,4,56.44100100902219
5.920304046246273,16.04057355583023,48.4417175583195,26.854236164895845,14.422205101855956,9.35147047260483,4.5,2.7294688127912363,35.050000000000004,257.3,2346.6,721.1500000000001,208.0,87.45,20.25,7.45,4,40.929390715814066
38.524667422315275,10.961295543867067,27.75157653179365,55.22363624391281,13.957077057894322,10.509519494249012,7.179832867135557,14.03744991086344,1484.15,120.15,770.1500000000001,3049.65,194.8,110.45,51.550000000000004,197.05,4,30.409138268096285
31.47220996371243,12.601587201618692,39.53353007258522,43.85145379574091,17.838161340227867,6.9498201415576215,5.527205442174192,6.591661399070799,990.5,158.8,1562.9,1922.95,318.20000000000005,48.300000000000004,30.55,43.45,4,49.537545019826865
24.17953680284219,11.193748255164577,27.710106459557316,51.119956963988145,16.375286257039903,10.862780491200215,4.706378650300037,5.770615218501403,584.65,125.30000000000001,767.85,2613.25,268.15000000000003,118.0,22.150000000000002,33.300000000000004,4,47.485705379864534
14.375326083258077,13.48332303254654,23.979157616563597,40.15843622453444,10.908712114635714,9.23038460737146,2.8106938645110393,3.3466401061363023,206.65,181.8,575.0,1612.7,119.0,85.2,7.9,11.200000000000001,4,45.6391965942613
14.813844875656015,7.010706098532443,14.650938536489736,24.355697485393435,17.73978579352073,6.308724118235001,4.679743582719036,3.8144462245521304,219.45000000000002,49.150000000000006,214.65,593.2,314.70000000000005,39.800000000000004,21.900000000000002,14.55,4,32.257066854963945
3.8535697735995385,7.703895118704564,17.545654732725136,33.48283142149122,35.19517012318594,7.58617163001207,4.024922359499621,3.0083217912982647,14.850000000000001,59.35,307.85,1121.1000000000001,1238.7,57.550000000000004,16.2,9.05,4,28.919264453442334
8.429116205154607,8.919080670113933,17.797471730557685,31.252199922565453,16.774981371077583,11.115304764152892,3.9560080889704965,2.179449471770337,71.05,79.55000000000001,316.75,976.7,281.40000000000003,123.55000000000001,15.65,4.75,4,32.36751567202835
14.85260919838666,16.278820596099706,58.59479499068155,40.48332990256607,18.533752992850637,7.6583287994183165,4.012480529547776,5.054700782440045,220.60000000000002,265.0,3433.3500000000004,1638.9,343.5,58.650000000000006,16.1,25.55,4,28.08465545236106
24.17540072056718,12.027052839328512,46.88069965348214,35.08062143121185,16.278820596099706,10.10692831675381,4.769696007084728,5.333854141237834,584.45,144.65,2197.8,1230.65,265.0,102.15,22.75,28.450000000000003,4,37.78197566688897
17.884350701101788,16.029660008871055,50.72967573324316,39.517717545425114,20.728000385951365,10.922453936730518,7.010706098532443,5.286775955154521,319.85,256.95,2573.5,1561.65,429.65000000000003,119.30000000000001,49.150000000000006,27.950000000000003,4,37.29916948831849
5.545268253204709,9.431330765061738,22.494443758403985,37.23103544087916,15.279070652366261,6.931810730249348,4.9749371855331,3.9812058474788765,30.75,88.95,506.0,1386.15,233.45000000000002,48.050000000000004,24.75,15.850000000000001,4,38.37437649315214
10.726136303441235,11.020435563080072,35.466181074369985,41.8867520822515,11.931051923447487,9.195107394696377,5.890670590009257,7.256031973468694,115.05000000000001,121.45,1257.8500000000001,1754.5,142.35,84.55000000000001,34.7,52.650000000000006,4,30.072998158168716
22.712331452319024,14.295104056983986,54.517428405969405,36.48766915000189,13.83473888441701,8.28854631404084,3.5425979167836705,6.037383539249433,515.85,204.35000000000002,2972.15,1331.3500000000001,191.4,68.7,12.55,36.45,4,39.1872106161267
6.320601237224193,12.593649193144932,28.029448799432355,41.40652122552678,19.87838021570168,9.654014708917737,5.585696017507576,6.621933252457322,39.95,158.60000000000002,785.6500000000001,1714.5,395.15000000000003,93.2,31.200000000000003,43.85,4,38.94709518776435
14.092551223962253,8.648699324175862,34.41438652656763,49.04895513667952,11.629703349613008,8.654478609367523,3.987480407475377,6.967783004657938,198.60000000000002,74.8,1184.3500000000001,2405.8,135.25,74.9,15.9,48.550000000000004,4,31.653643017394796
31.049959742324948,21.51278689523977,33.458182855618446,35.84271195096711,12.479983974348684,13.92300254973761,6.815423684555495,8.5,964.1,462.8,1119.45,1284.7,155.75,193.85000000000002,46.45,72.25,4,42.44583354382332
16.34625339336204,14.776670802315385,25.745873455759856,30.369392486515103,10.404326023342406,8.663140308225419,2.8548204847240397,4.8218253804964775,267.2,218.35000000000002,662.85,922.3000000000001,108.25,75.05,8.15,23.25,4,33.10605221874111
11.061193425666147,10.554619841567009,33.69050311289518,27.896236305279608,14.734313692873517,6.87386354243376,3.24037034920393,7.338255923582933,122.35000000000001,111.4,1135.05,778.2,217.10000000000002,47.25,10.5,53.85,4,29.132814395897363
50.26828025703684,13.126309458488324,57.97844427026306,60.80172694915828,22.1201265819163,10.497618777608569,7.479973261984297,7.60920495189872,2526.9,172.3,3361.5,3696.8500000000004,489.3,110.2,55.95,57.900000000000006,4,36.456852246035055
35.273219303034985,21.1482859825566,31.971862629505964,43.67150100465978,14.698639392814561,9.937303457175895,5.490901565316938,12.798437404620925,1244.2,447.25,1022.2,1907.2,216.05,98.75,30.150000000000002,163.8,4,52.23661397690904
13.30225544785545,16.200308639035246,59.047015165882854,34.27462618322773,13.905035059286977,10.851267207105353,5.10881590977792,3.6193922141707713,176.95000000000002,262.45,3486.55,1174.75,193.35000000000002,117.75,26.1,13.100000000000001,4,38.97306359394376
20.1357890334598,20.849460424672866,55.70951444771351,68.77390493493881,26.104597296261822,12.567816039392046,9.803060746521975,10.03493896344168,405.45000000000005,434.70000000000005,3103.55,4729.85,681.45,157.95000000000002,96.10000000000001,100.7,4,44.1138481695935
18.272930799409274,14.291605927956452,45.23715287239019,65.91357978444199,20.773781552716876,13.032651303552933,6.931810730249348,7.439758060582347,333.90000000000003,204.25,2046.4,4344.6,431.55,169.85000000000002,48.050000000000004,55.35,4,67.34374235969041
4.631414470763764,7.886697661252142,19.231484602078957,69.23980069295405,15.759124341155507,8.300602387778854,3.286335345030997,2.756809750418044,21.450000000000003,62.2,369.85,4794.150000000001,248.35000000000002,68.9,10.8,7.6000000000000005,4,67.57669023869803
2.9154759474226504,7.422937423958254,20.75451758051726,22.329352879114076,15.464475419489663,8.913472948295743,3.598610843089316,2.1330729007701543,8.5,55.1,430.75,498.6,239.15,79.45,12.950000000000001,4.55,4,45.78457678603408
13.141537200799608,10.146427942877237,21.15301396964508,39.666736694616056,13.850992744204294,8.780660567406077,10.945318634009702,6.430396566309111,172.70000000000002,102.95,447.45000000000005,1573.45,191.85000000000002,77.10000000000001,119.80000000000001,41.35,4,24.124347256601354
24.7780144482967,15.200328943809078,28.74630411026781,55.69874325332664,13.03456942135029,8.974965180990955,13.533292282367952,5.585696017507576,613.95,231.05,826.35,3102.3500000000004,169.9,80.55000000000001,183.15,31.200000000000003,4,47.682739973971366
11.289375536317321,19.204166214652485,34.05363416729557,43.27008204290812,21.621748310439653,8.378544026261364,5.928743543112655,4.230839160261236,127.45,368.8,1159.65,1872.3000000000002,467.5,70.2,35.15,17.900000000000002,4,49.48441264811739
9.5,14.071247279470288,28.321370023358686,30.510653876965666,26.039393234098217,8.532291603080617,4.381780460041329,5.118593556827891,90.25,198.0,802.1,930.9000000000001,678.0500000000001,72.8,19.200000000000003,26.200000000000003,4,36.8903679599369
16.589153082662175,9.457801012920498,28.284271247461902,55.27160211175355,15.722595205626837,7.14142842854285,3.024896692450835,5.205766033928148,275.2,89.45,800.0,3054.9500000000003,247.20000000000002,51.0,9.15,27.1,4,33.96924403738377
28.37868918748715,25.122698899600735,40.34352488318292,66.45637666921061,16.472704695950814,8.680437776978762,5.389805191284746,7.582875444051551,805.35,631.1500000000001,1627.6000000000001,4416.45,271.35,75.35000000000001,29.05,57.5,4,60.8639893904821
30.908736628985665,23.972901368002997,36.89715436182037,69.89957081413304,20.289159667172022,10.881176406988354,5.830951894845301,5.594640292279746,955.35,574.7,1361.4,4885.95,411.65000000000003,118.4,34.0,31.3,4,68.17797374167185
13.380956617521784,13.298496155580901,26.047072772194575,42.53998119416604,12.949903474543738,8.464632301523794,2.2135943621178655,3.570714214271425,179.05,176.85000000000002,678.45,1809.65,167.70000000000002,71.65,4.9,12.75,4,56.21977600414955
11.30044246921332,10.329569206893384,46.859364058851675,32.16442133786958,12.529964086141668,7.245688373094719,3.0495901363953815,4.224926034855522,127.7,106.7,2195.8,1034.55,157.0,52.5,9.3,17.85,4,28.390236505761763
13.408952233489387,15.297058540778355,43.99488606645095,39.957477397853836,13.431306712304652,8.806247782114696,3.774917217635375,5.599107071667768,179.8,234.0,1935.5500000000002,1596.6000000000001,180.4,77.55000000000001,14.25,31.35,4,36.060949367861724
12.523977004130916,14.727525250360292,50.128335300506436,50.53563099437861,16.578600664712326,7.8390050389064045,5.449770637375485,3.492849839314596,156.85000000000002,216.9,2512.8500000000004,2553.8500000000004,274.85,61.45,29.700000000000003,12.200000000000001,4,45.246554196116236
26.778722897106203,10.35615758860399,42.368620463734715,40.21691186553239,14.359665734271115,6.461423991660043,4.183300132670378,4.171330722922842,717.1,107.25,1795.1000000000001,1617.4,206.20000000000002,41.75,17.5,17.400000000000002,4,32.17390246408033
15.111254084290952,9.489467845985885,30.876366366527005,31.696214284989935,12.5,8.605230967266364,3.278719262151,5.454356057317857,228.35000000000002,90.05000000000001,953.35,1004.6500000000001,156.25,74.05,10.75,29.75,4,35.95656307526117
5.678908345800274,9.927235264664578,32.335738742141025,37.613162589710534,12.8666234887013,6.0456596000767355,3.0083217912982647,2.8460498941515415,32.25,98.55000000000001,1045.6000000000001,1414.75,165.55,36.550000000000004,9.05,8.1,4,34.654688437350245
14.423938435808717,9.964938534682489,27.97230773461496,38.903727327853815,10.29805806936434,8.47938677028003,4.266145801540309,5.181698563212646,208.05,99.30000000000001,782.45,1513.5,106.05000000000001,71.9,18.2,26.85,4,26.85878610175493
24.982994216066256,12.72399308393399,51.13169271596629,66.10748822939803,16.00312469488381,8.45872330792301,7.053367989832942,6.496152707564686,624.1500000000001,161.9,2614.4500000000003,4370.2,256.1,71.55,49.75,42.2,4,52.50560777862594
16.084153692376855,12.41168803990819,40.203855536502964,48.18817282279958,19.43193248238579,11.497825881443848,4.129164564412516,5.5362442142665635,258.7,154.05,1616.3500000000001,2322.1,377.6,132.20000000000002,17.05,30.650000000000002,4,57.147830526098815
6.115553940568262,11.536897329871667,15.433729296576379,37.4546392320097,19.02235526952433,19.16637680940245,14.857657958103626,6.96419413859206,37.4,133.1,238.20000000000002,1402.8500000000001,361.85,367.35,220.75,48.5,4,21.431483072602855
2.258317958127243,6.935416353759881,7.466592261534039,11.484772527133483,10.322305943925514,5.468089245796926,3.2015621187164243,2.5199206336708304,5.1000000000000005,48.1,55.75,131.9,106.55000000000001,29.900000000000002,10.25,6.3500000000000005,5,
3.6606010435446255,6.212889826803627,7.368853370776216,10.931605554537724,14.024977718342372,6.375735251718032,2.9832867780352594,2.6076809620810595,13.4,38.6,54.300000000000004,119.5,196.70000000000002,40.650000000000006,8.9,6.800000000000001,5,
2.3345235059857505,3.7416573867739413,11.79618582423997,5.079370039680118,6.1400325732035,2.5,2.1330729007701543,2.5787593916455256,5.45,14.0,139.15,25.8,37.7,6.25,4.55,6.65,5,
3.5142566781611158,6.348228099241551,18.25239710284652,10.084641788382967,6.44980619863884,7.256031973468694,3.5071355833500366,2.449489742783178,12.350000000000001,40.300000000000004,333.15000000000003,101.7,41.6,52.650000000000006,12.3,6.0,5,
2.80178514522438,5.518151864528558,10.173494974687902,24.602845363900492,8.599418584997476,6.252999280345393,2.80178514522438,2.5495097567963922,7.8500000000000005,30.450000000000003,103.5,605.3000000000001,73.95,39.1,7.8500000000000005,6.5,5,
1.8439088914585775,2.8106938645110393,4.738143096192854,12.591663909110663,5.783597496368502,3.9370039370059056,2.5199206336708304,1.8027756377319946,3.4000000000000004,7.9,22.450000000000003,158.55,33.45,15.5,6.3500000000000005,3.25,5,
2.0248456731316584,3.1304951684997055,12.016655108639842,16.38596960817394,11.736694594305503,4.604345773288535,2.7294688127912363,2.7838821814150108,4.1000000000000005,9.8,144.4,268.5,137.75,21.200000000000003,7.45,7.75,5,
2.3130067012440754,2.4596747752497685,3.5777087639996634,8.056053624449133,7.127411872482185,3.3015148038438356,2.449489742783178,1.5968719422671311,5.3500000000000005,6.050000000000001,12.8,64.9,50.800000000000004,10.9,6.0,2.5500000000000003,5,
1.70293863659264,2.6551836094703507,2.3769728648009427,4.207136793592526,5.60357029044876,3.6606010435446255,2.280350850198276,1.9235384061671346,2.9000000000000004,7.050000000000001,5.65,17.7,31.400000000000002,13.4,5.2,3.7,5,
2.3130067012440754,2.6551836094703507,5.486346689738081,4.954795656734998,6.260990336999411,3.1543620591175006,2.32379000772445,1.6881943016134133,5.3500000000000005,7.050000000000001,30.1,24.55,39.2,9.950000000000001,5.4,2.85,5,
2.2135943621178655,2.7294688127912363,2.23606797749979,6.04979338490167,5.2583267300539625,3.626292872893749,2.692582403567252,2.3664319132398464,4.9,7.45,5.0,36.6,27.650000000000002,13.15,7.25,5.6000000000000005,5,
1.5,2.247220505424423,3.0083217912982647,3.646916505762094,4.3531597719357835,2.280350850198276,2.0,2.1908902300206643,2.25,5.050000000000001,9.05,13.3,18.95,5.2,4.0,4.800000000000001,5,
1.3416407864998738,2.3021728866442674,3.0903074280724887,4.598912915026768,5.157518783291051,4.283689998120779,1.9235384061671346,1.8027756377319946,1.8,5.300000000000001,9.55,21.150000000000002,26.6,18.35,3.7,3.25,5,
1.746424919657298,2.6172504656604803,2.5298221281347035,4.732863826479693,7.293833011524188,3.478505426185217,1.9874606914351791,1.61245154965971,3.0500000000000003,6.8500000000000005,6.4,22.400000000000002,53.2,12.100000000000001,3.95,2.6,5,
2.0124611797498106,2.085665361461421,3.5142566781611158,4.69041575982343,6.383572667401852,4.324349662087931,2.3769728648009427,2.04939015319192,4.05,4.3500000000000005,12.350000000000001,22.0,40.75,18.7,5.65,4.2,5,
1.5968719422671311,1.8303005217723127,2.6457513110645907,6.523036102920173,6.252999280345393,3.2093613071762426,2.4289915602982237,1.2449899597988732,2.5500000000000003,3.35,7.0,42.550000000000004,39.1,10.3,5.9,1.55,5,
1.4142135623730951,2.6172504656604803,2.569046515733026,2.0124611797498106,3.263433774416144,3.5355339059327378,1.9621416870348585,1.6431676725154984,2.0,6.8500000000000005,6.6000000000000005,4.05,10.65,12.5,3.85,2.7,5,
1.5491933384829668,1.9621416870348585,2.3345235059857505,5.142956348249516,6.442049363362563,3.2093613071762426,2.3769728648009427,2.0615528128088303,2.4000000000000004,3.85,5.45,26.450000000000003,41.5,10.3,5.65,4.25,5,
1.9235384061671346,2.2693611435820435,1.7888543819998317,3.391164991562634,4.852834223420372,2.949576240750525,2.6267851073127395,1.6278820596099706,3.7,5.15,3.2,11.5,23.55,8.700000000000001,6.9,2.6500000000000004,5,
2.0615528128088303,2.4289915602982237,2.04939015319192,4.732863826479693,5.974947698515862,4.129164564412516,1.7748239349298849,2.247220505424423,4.25,5.9,4.2,22.400000000000002,35.7,17.05,3.1500000000000004,5.050000000000001,5,
2.16794833886788,2.3345235059857505,2.32379000772445,4.505552130427524,6.614378277661476,4.8373546489791295,3.2015621187164243,1.7888543819998317,4.7,5.45,5.4,20.3,43.75,23.400000000000002,10.25,3.2,5,
1.284523257866513,2.258317958127243,2.6362852652928135,3.63318042491699,7.971825386948713,4.47213595499958,2.5298221281347035,2.3979157616563596,1.6500000000000001,5.1000000000000005,6.95,13.200000000000001,63.550000000000004,20.0,6.4,5.75,5,
2.5298221281347035,2.1330729007701543,2.085665361461421,3.681032463861192,6.375735251718032,4.626013402488151,2.345207879911715,1.6278820596099706,6.4,4.55,4.3500000000000005,13.55,40.650000000000006,21.400000000000002,5.5,2.6500000000000004,5,
2.1330729007701543,2.6076809620810595,2.932575659723036,4.364630568559039,5.639148871948674,5.034878350069642,2.0124611797498106,2.345207879911715,4.55,6.800000000000001,8.6,19.05,31.8,25.35,4.05,5.5,5,
1.857417562100671,2.3979157616563596,3.2326459750489227,4.219004621945797,5.683308895353129,3.0166206257996713,2.3021728866442674,2.3130067012440754,3.45,5.75,10.450000000000001,17.8,32.300000000000004,9.1,5.300000000000001,5.3500000000000005,5,
2.3874672772626644,2.224859546128699,2.0248456731316584,3.420526275297414,5.039841267341661,4.364630568559039,2.6267851073127395,2.258317958127243,5.7,4.95,4.1000000000000005,11.700000000000001,25.400000000000002,19.05,6.9,5.1000000000000005,5,
1.70293863659264,1.9493588689617927,2.932575659723036,4.494441010848846,6.284902544988268,3.7013511046643495,2.3345235059857505,1.6278820596099706,2.9000000000000004,3.8000000000000003,8.6,20.200000000000003,39.5,13.700000000000001,5.45,2.6500000000000004,5,
1.3038404810405297,1.6733200530681511,2.2135943621178655,7.835815209663893,7.92464510246358,4.358898943540674,2.8722813232690143,2.1447610589527217,1.7000000000000002,2.8000000000000003,4.9,61.400000000000006,62.800000000000004,19.0,8.25,4.6000000000000005,5,
1.5968719422671311,2.085665361461421,2.179449471770337,3.3466401061363023,4.669047011971501,3.1622776601683795,2.1095023109728985,1.8973665961010275,2.5500000000000003,4.3500000000000005,4.75,11.200000000000001,21.8,10.0,4.45,3.6,5,
2.073644135332772,2.2693611435820435,1.6278820596099706,4.153311931459037,6.892024376045111,3.6674241641784495,2.247220505424423,2.1330729007701543,4.3,5.15,2.6500000000000004,17.25,47.5,13.450000000000001,5.050000000000001,4.55,5,
1.8708286933869707,1.8439088914585775,2.7477263328068173,4.2130748865881795,5.830951894845301,3.024896692450835,2.5495097567963922,2.085665361461421,3.5,3.4000000000000004,7.550000000000001,17.75,34.0,9.15,6.5,4.3500000000000005,5,
1.8841443681416772,2.5199206336708304,2.8809720581775866,3.3689761055846033,4.141255848169731,3.0413812651491097,2.1213203435596424,1.6583123951777,3.5500000000000003,6.3500000000000005,8.3,11.350000000000001,17.150000000000002,9.25,4.5,2.75,5,
1.9874606914351791,2.6362852652928135,2.3979157616563596,4.8373546489791295,7.605918747922567,4.642197755374064,2.16794833886788,2.1330729007701543,3.95,6.95,5.75,23.400000000000002,57.85,21.55,4.7,4.55,5,
1.9748417658131499,3.0495901363953815,2.4392621835300936,4.522167621838006,5.504543577809154,4.455333881989093,2.449489742783178,1.7175564037317668,3.9000000000000004,9.3,5.95,20.450000000000003,30.3,19.85,6.0,2.95,5,
1.5491933384829668,2.8548204847240397,2.4899799195977463,3.930648801406709,7.273238618387272,4.685082710048992,2.355843797877949,2.355843797877949,2.4000000000000004,8.15,6.2,15.450000000000001,52.900000000000006,21.950000000000003,5.550000000000001,5.550000000000001,5,
2.179449471770337,2.7748873851023217,2.5495097567963922,2.932575659723036,6.557438524302,4.764451699828638,2.479919353527449,2.3021728866442674,4.75,7.7,6.5,8.6,43.0,22.700000000000003,6.15,5.300000000000001,5,
1.8841443681416772,2.04939015319192,2.6076809620810595,3.987480407475377,4.58257569495584,4.104875150354759,1.9874606914351791,2.0124611797498106,3.5500000000000003,4.2,6.800000000000001,15.9,21.0,16.85,3.95,4.05,5,
1.4832396974191326,2.6076809620810595,2.32379000772445,3.987480407475377,6.899275324264136,3.866522985836241,2.0124611797498106,2.1095023109728985,2.2,6.800000000000001,5.4,15.9,47.6,14.950000000000001,4.05,4.45,5,
1.8708286933869707,2.2693611435820435,3.0166206257996713,3.6945906403822333,7.014271166700073,3.626292872893749,2.16794833886788,2.5099800796022267,3.5,5.15,9.1,13.65,49.2,13.15,4.7,6.300000000000001,5,
1.4142135623730951,2.0248456731316584,1.857417562100671,5.06951674225463,6.029096117993144,4.538722287164087,1.8841443681416772,1.61245154965971,2.0,4.1000000000000005,3.45,25.700000000000003,36.35,20.6,3.5500000000000003,2.6,5,
1.7175564037317668,1.7888543819998317,1.51657508881031,4.674398357008098,6.020797289396148,3.4351128074635335,2.8284271247461903,1.70293863659264,2.95,3.2,2.3000000000000003,21.85,36.25,11.8,8.0,2.9000000000000004,5,
1.5811388300841898,2.449489742783178,2.7386127875258306,4.620606020859169,4.964876634922564,3.924283374069717,1.857417562100671,2.1095023109728985,2.5,6.0,7.5,21.35,24.650000000000002,15.4,3.45,4.45,5,
2.0615528128088303,1.9364916731037085,2.6172504656604803,3.383784863137726,5.585696017507576,3.626292872893749,1.70293863659264,2.073644135332772,4.25,3.75,6.8500000000000005,11.450000000000001,31.200000000000003,13.15,2.9000000000000004,4.3,5,
1.8841443681416772,2.9154759474226504,2.701851217221259,5.656854249492381,8.520563361656317,3.5425979167836705,2.756809750418044,1.9621416870348585,3.5500000000000003,8.5,7.300000000000001,32.0,72.60000000000001,12.55,7.6000000000000005,3.85,5,
1.6881943016134133,1.6881943016134133,1.449137674618944,3.0083217912982647,7.063993204979744,3.8858718455450894,2.8809720581775866,2.073644135332772,2.85,2.85,2.1,9.05,49.900000000000006,15.100000000000001,8.3,4.3,5,
1.8841443681416772,1.8973665961010275,1.9621416870348585,2.6362852652928135,4.964876634922564,4.09878030638384,2.7202941017470885,2.3021728866442674,3.5500000000000003,3.6,3.85,6.95,24.650000000000002,16.8,7.4,5.300000000000001,5,
2.224859546128699,2.1330729007701543,2.085665361461421,3.6124783736376886,4.9749371855331,2.9068883707497264,2.1095023109728985,2.1213203435596424,4.95,4.55,4.3500000000000005,13.05,24.75,8.450000000000001,4.45,4.5,5,
2.0976176963403033,2.202271554554524,2.3130067012440754,3.4856850115866753,5.903388857258177,3.9179076048319463,2.04939015319192,1.857417562100671,4.4,4.8500000000000005,5.3500000000000005,12.15,34.85,15.350000000000001,4.2,3.45,5,
1.760681686165901,2.4899799195977463,1.9493588689617927,4.06201920231798,6.192737682156414,2.5199206336708304,2.0976176963403033,1.8027756377319946,3.1,6.2,3.8000000000000003,16.5,38.35,6.3500000000000005,4.4,3.25,5,
2.1095023109728985,2.8809720581775866,2.1330729007701543,3.03315017762062,6.020797289396148,3.605551275463989,2.2135943621178655,1.3038404810405297,4.45,8.3,4.55,9.200000000000001,36.25,13.0,4.9,1.7000000000000002,5,
1.7320508075688772,2.2693611435820435,1.9748417658131499,2.711088342345192,4.852834223420372,3.646916505762094,2.4083189157584592,2.224859546128699,3.0,5.15,3.9000000000000004,7.3500000000000005,23.55,13.3,5.800000000000001,4.95,5,
2.1095023109728985,2.5199206336708304,1.9748417658131499,2.0248456731316584,5.8779248038742375,3.40587727318528,2.04939015319192,1.9235384061671346,4.45,6.3500000000000005,3.9000000000000004,4.1000000000000005,34.550000000000004,11.600000000000001,4.2,3.7,5,
1.6431676725154984,1.8841443681416772,1.9874606914351791,4.183300132670378,8.910667763978186,4.6475800154489,2.598076211353316,1.8841443681416772,2.7,3.5500000000000003,3.95,17.5,79.4,21.6,6.75,3.5500000000000003,5,
1.9874606914351791,2.247220505424423,2.3979157616563596,4.330127018922194,5.665686189686118,3.598610843089316,2.539685019840059,2.0124611797498106,3.95,5.050000000000001,5.75,18.75,32.1,12.950000000000001,6.45,4.05,5,
2.5099800796022267,1.8303005217723127,2.04939015319192,4.427188724235731,6.935416353759881,3.5355339059327378,2.8106938645110393,2.073644135332772,6.300000000000001,3.35,4.2,19.6,48.1,12.5,7.9,4.3,5,
1.3601470508735443,2.819574435974337,3.1622776601683795,6.29285308902091,7.039176088151226,3.721558813185679,2.2693611435820435,2.0615528128088303,1.85,7.95,10.0,39.6,49.550000000000004,13.850000000000001,5.15,4.25,5,
1.5652475842498528,2.1213203435596424,2.5199206336708304,2.280350850198276,4.652956049652737,3.8600518131237567,2.6267851073127395,2.0248456731316584,2.45,4.5,6.3500000000000005,5.2,21.650000000000002,14.9,6.9,4.1000000000000005,5,
1.70293863659264,1.5968719422671311,2.4698178070456938,2.0615528128088303,5.347896782848375,4.631414470763764,2.7477263328068173,1.8027756377319946,2.9000000000000004,2.5500000000000003,6.1000000000000005,4.25,28.6,21.450000000000003,7.550000000000001,3.25,5,
1.6278820596099706,2.3021728866442674,2.3769728648009427,3.7616485747608057,6.652067347825035,4.05585995813465,2.0371548787463363,1.7748239349298849,2.6500000000000004,5.300000000000001,5.65,14.15,44.25,16.45,4.15,3.1500000000000004,5,
2.3130067012440754,1.857417562100671,2.898275349237888,3.391164991562634,5.300943312279429,4.043513323831146,2.449489742783178,1.857417562100671,5.3500000000000005,3.45,8.4,11.5,28.1,16.35,6.0,3.45,5,
2.0124611797498106,2.0248456731316584,4.33589667773576,4.024922359499621,5.113707070218238,4.795831523312719,1.8973665961010275,2.23606797749979,4.05,4.1000000000000005,18.8,16.2,26.150000000000002,23.0,3.6,5.0,5,
2.29128784747792,2.085665361461421,3.024896692450835,3.0083217912982647,4.266145801540309,3.6606010435446255,2.073644135332772,2.0,5.25,4.3500000000000005,9.15,9.05,18.2,13.4,4.3,4.0,5,
1.7888543819998317,2.3769728648009427,1.9235384061671346,5.1478150704935,6.2008063991709985,4.153311931459037,2.0371548787463363,2.179449471770337,3.2,5.65,3.7,26.5,38.45,17.25,4.15,4.75,5,
2.1213203435596424,1.746424919657298,2.4899799195977463,4.08656334834051,5.5,3.0495901363953815,1.91049731745428,2.0976176963403033,4.5,3.0500000000000003,6.2,16.7,30.25,9.3,3.6500000000000004,4.4,5,
1.4832396974191326,2.0248456731316584,2.5298221281347035,4.571651780264984,5.157518783291051,4.324349662087931,2.32379000772445,1.396424004376894,2.2,4.1000000000000005,6.4,20.900000000000002,26.6,18.7,5.4,1.9500000000000002,5,
1.760681686165901,1.9874606914351791,2.4596747752497685,3.383784863137726,6.7379522111692065,4.254409477236529,1.8973665961010275,2.0976176963403033,3.1,3.95,6.050000000000001,11.450000000000001,45.400000000000006,18.1,3.6,4.4,5,
2.202271554554524,2.0615528128088303,1.5652475842498528,4.415880433163924,5.9833101206606365,2.8372521918222215,1.5811388300841898,2.3021728866442674,4.8500000000000005,4.25,2.45,19.5,35.800000000000004,8.05,2.5,5.300000000000001,5,
1.8439088914585775,2.569046515733026,2.4186773244895647,4.795831523312719,7.286974680894672,4.6475800154489,1.6881943016134133,1.161895003862225,3.4000000000000004,6.6000000000000005,5.8500000000000005,23.0,53.1,21.6,2.85,1.35,5,
1.61245154965971,2.179449471770337,2.898275349237888,3.40587727318528,5.13322510708424,3.2093613071762426,2.5,1.7320508075688772,2.6,4.75,8.4,11.600000000000001,26.35,10.3,6.25,3.0,5,
2.2693611435820435,2.3874672772626644,2.692582403567252,3.892300091205713,7.372245248226622,4.888762624632126,2.3130067012440754,1.6431676725154984,5.15,5.7,7.25,15.15,54.35,23.900000000000002,5.3500000000000005,2.7,5,
2.3021728866442674,1.6278820596099706,2.5495097567963922,4.110960958218893,6.526867548832288,3.9370039370059056,2.258317958127243,2.2693611435820435,5.300000000000001,2.6500000000000004,6.5,16.900000000000002,42.6,15.5,5.1000000000000005,5.15,5,
1.8973665961010275,1.7888543819998317,2.3021728866442674,5.787918451395113,7.648529270389178,4.847679857416329,1.816590212458495,1.5811388300841898,3.6,3.2,5.300000000000001,33.5,58.5,23.5,3.3000000000000003,2.5,5,
1.4832396974191326,2.5199206336708304,2.224859546128699,3.427827300200522,6.04979338490167,3.4132096331752027,2.0371548787463363,2.2135943621178655,2.2,6.3500000000000005,4.95,11.75,36.6,11.65,4.15,4.9,5,
1.378404875209022,2.085665361461421,2.792848008753788,3.5142566781611158,5.549774770204643,3.8144462245521304,2.3021728866442674,2.16794833886788,1.9000000000000001,4.3500000000000005,7.800000000000001,12.350000000000001,30.8,14.55,5.300000000000001,4.7,5,
1.9493588689617927,2.7838821814150108,2.819574435974337,6.144102863722254,5.215361924162119,3.872983346207417,1.9748417658131499,1.61245154965971,3.8000000000000003,7.75,7.95,37.75,27.200000000000003,15.0,3.9000000000000004,2.6,5,
0.9486832980505138,2.355843797877949,2.7477263328068173,4.104875150354759,7.26636084983398,3.6193922141707713,2.247220505424423,1.466287829861518,0.9,5.550000000000001,7.550000000000001,16.85,52.800000000000004,13.100000000000001,5.050000000000001,2.15,5,
1.5491933384829668,2.0976176963403033,2.3979157616563596,5.422176684690384,6.670832032063167,4.330127018922194,2.5099800796022267,1.9621416870348585,2.4000000000000004,4.4,5.75,29.400000000000002,44.5,18.75,6.300000000000001,3.85,5,
1.9364916731037085,1.91049731745428,2.085665361461421,4.780167361086848,5.941380311005179,3.8013155617496426,2.598076211353316,2.0615528128088303,3.75,3.6500000000000004,4.3500000000000005,22.85,35.300000000000004,14.450000000000001,6.75,4.25,5,
1.3038404810405297,2.8548204847240397,2.7477263328068173,3.3763886032268267,6.822756041366275,3.420526275297414,2.8548204847240397,1.70293863659264,1.7000000000000002,8.15,7.550000000000001,11.4,46.550000000000004,11.700000000000001,8.15,2.9000000000000004,5,
1.746424919657298,2.0976176963403033,2.179449471770337,3.391164991562634,3.7616485747608057,3.5846896657869842,3.0903074280724887,2.3664319132398464,3.0500000000000003,4.4,4.75,11.5,14.15,12.850000000000001,9.55,5.6000000000000005,5,
1.760681686165901,2.4186773244895647,2.6739483914241875,3.640054944640259,5.70087712549569,3.278719262151,2.692582403567252,1.5968719422671311,3.1,5.8500000000000005,7.15,13.25,32.5,10.75,7.25,2.5500000000000003,5,
1.2449899597988732,2.0371548787463363,2.224859546128699,3.6674241641784495,5.670097000933935,2.8722813232690143,1.9235384061671346,1.7175564037317668,1.55,4.15,4.95,13.450000000000001,32.15,8.25,3.7,2.95,5,
1.8303005217723127,2.3345235059857505,2.345207879911715,2.949576240750525,7.57957782465488,4.080441152620633,1.6881943016134133,1.61245154965971,3.35,5.45,5.5,8.700000000000001,57.45,16.650000000000002,2.85,2.6,5,
2.073644135332772,2.5199206336708304,2.1095023109728985,6.232976816898969,9.617692030835672,4.929503017546495,2.711088342345192,2.179449471770337,4.3,6.3500000000000005,4.45,38.85,92.5,24.3,7.3500000000000005,4.75,5,
1.9874606914351791,2.898275349237888,2.1330729007701543,3.640054944640259,4.679743582719036,3.6674241641784495,2.1563858652847827,2.4392621835300936,3.95,8.4,4.55,13.25,21.900000000000002,13.450000000000001,4.65,5.95,5,
1.4142135623730951,2.3979157616563596,2.0976176963403033,3.170173496829472,7.060453243241541,4.306971093471606,2.3874672772626644,1.9621416870348585,2.0,5.75,4.4,10.05,49.85,18.55,5.7,3.85,5,
1.5811388300841898,2.202271554554524,2.247220505424423,3.082207001484488,4.4328320518603,3.7282703764614498,2.7386127875258306,2.1213203435596424,2.5,4.8500000000000005,5.050000000000001,9.5,19.650000000000002,13.9,7.5,4.5,5,
2.0371548787463363,2.0248456731316584,3.138470965295043,4.147288270665544,7.252585745787498,3.3015148038438356,2.3664319132398464,2.4899799195977463,4.15,4.1000000000000005,9.850000000000001,17.2,52.6,10.9,5.6000000000000005,6.2,5,
